RX Date/Time,MAX30100/1 raw,MAX30100/2 filter,MAX30100/3 restrurt,MAX30100/4 BPM
0.000000000,44981,247.40,137.16,0.0
0.000292500,44999,2093.31,1023.35,0.0
0.000311200,44976,8837.69,3739.01,0.0
0.000323900,44950,25450.02,9209.89,0.0
0.000336000,44948,57410.35,17719.13,0.0
0.027467600,44939,109663.48,28969.79,0.0
0.027486500,44961,185996.25,42319.77,0.0
0.027500900,44966,288730.06,56956.59,0.0
0.027515000,44979,418639.94,72022.72,0.0
0.027529600,44966,575029.25,86701.97,0.0
0.027542400,44953,755904.06,100275.05,0.0
0.027555500,44963,958204.81,112151.09,0.0
0.027568500,44972,1178064.19,121882.09,0.0
0.072005400,44973,1411068.13,129165.08,0.0
0.072028900,44976,1652502.87,133834.26,0.0
0.437368500,44949,1897576.61,135846.54,0.0
0.437392300,44979,2141609.31,135263.97,0.0
0.437407600,44967,2380188.47,132234.85,0.0
0.437422700,44970,2609290.79,126974.84,0.0
0.438939300,44953,2825370.19,119748.37,0.0
0.438960200,44958,3025414.68,110851.37,0.0
0.438976100,44969,3206976.09,100596.10,0.0
0.438992500,44954,3368176.77,89298.74,0.0
0.439006200,44980,3507697.13,77268.96,0.0
0.439020300,44958,3624747.27,64801.13,0.0
0.439034200,44977,3719026.74,52167.24,0.0
0.439048300,44963,3790675.59,39611.96,0.0
0.439062100,44977,3840220.03,27349.54,0.0
0.439076100,44974,3868515.30,15562.66,0.0
0.439089500,44957,3876688.09,4402.23,0.0
0.439103500,44994,3866079.94,-6012.47,0.0
0.439117100,44972,3838193.65,-15592.69,0.0
0.439130500,44988,3794643.71,-24277.39,0.0
0.439144000,44983,3737110.85,-32030.28,0.0
0.439158500,44999,3667301.53,-38837.00,0.0
0.439172700,44984,3586912.73,-44726.06,0.0
0.439188800,44979,3497601.83,-49824.20,0.0
0.439207700,44986,3400961.37,-54351.98,0.0
0.439226700,44990,3298499.12,-58513.38,0.0
0.439246100,44998,3191623.30,-62410.44,0.0
0.439264600,44997,3081632.29,-66052.72,0.0
0.439282800,44991,2969707.85,-69395.46,0.0
0.439301100,44978,2856911.16,-72367.43,0.0
0.439319300,44985,2744181.61,-74890.86,0.0
0.439338000,45014,2632338.45,-76894.37,0.0
0.439356600,44987,2522085.30,-78320.28,0.0
0.439374800,45008,2414016.05,-79129.02,0.0
0.439393800,45020,2308621.59,-79301.49,0.0
0.439412300,45016,2206297.38,-78838.90,0.0
0.439430600,45036,2107351.80,-77761.12,0.0
0.439828300,45018,2012014.46,-76104.37,0.0
0.439850900,45025,1920444.18,-73918.23,0.0
0.439872000,45016,1832736.75,-71262.46,0.0
0.439890600,45020,1748932.55,-68203.99,0.0
0.464881300,45000,1669024.10,-64814.08,0.0
0.464903000,45007,1592963.28,-61165.69,0.0
0.486807600,45016,1520668.19,-57330.58,0.0
0.486832500,45000,1452030.06,-53376.73,0.0
0.486938300,44961,1386919.20,-49367.40,0.0
0.486954200,44954,1325189.40,-45361.26,0.0
0.507597800,44950,1266681.72,-41411.35,0.0
0.507719400,44903,1211228.52,-37563.49,0.0
0.529440100,44888,1158657.16,-33856.14,0.0
0.529461200,44872,1108792.91,-30321.26,0.0
0.550154100,44875,1061461.90,-26984.22,0.0
0.550175900,44862,1016494.53,-23863.42,0.0
0.590808200,44877,973728.52,-20970.52,0.0
0.590830800,44865,933011.37,-18311.24,0.0
0.593157300,44879,894201.95,-15886.13,0.0
0.593177800,44854,857171.21,-13691.79,0.0
0.611262900,44864,821801.97,-11722.09,0.0
0.611281800,44865,787988.23,-9968.84,0.0
0.632899600,44844,755634.44,-8422.00,0.0
0.632921000,44849,724654.62,-7070.12,0.0
0.646017500,44832,694971.11,-5900.55,0.0
0.646350700,44833,666513.41,-4899.41,0.0
0.666407700,44840,639217.42,-4052.05,0.0
0.666547700,44800,613024.82,-3343.67,0.0
0.691184700,44814,587882.19,-2759.67,0.0
0.691203000,44820,563740.16,-2285.90,0.0
0.708999100,44804,540553.17,-1908.50,0.0
0.709018000,44799,518279.53,-1614.05,0.0
0.726388600,44795,496880.79,-1390.28,0.0
0.726527400,44792,476321.13,-1226.38,0.0
0.746542000,44796,456567.09,-1112.91,0.0
0.746655500,44781,437587.51,-1041.52,0.0
0.773542500,44794,419353.27,-1004.70,0.0
0.773561100,44807,401837.29,-995.55,0.0
0.791310200,44804,385014.76,-1007.32,0.0
0.791329700,44788,368863.23,-1033.90,0.0
0.806111800,44777,353361.76,-1070.51,0.0
0.808055600,44785,338489.79,-1113.88,0.0
0.826721600,44780,324226.52,-1161.69,0.0
0.826741300,44767,310551.06,-1211.65,0.0
0.845952900,44766,297442.33,-1261.31,0.0
0.846338700,44785,284879.13,-1308.52,0.0
0.866809700,44761,272840.45,-1351.59,0.0
0.866830400,44784,261306.01,-1389.13,0.0
0.886022900,44784,250256.41,-1419.82,0.0
0.886113900,44791,239673.54,-1442.19,0.0
0.913837500,44781,229540.69,-1455.03,0.0
0.913901800,44788,219842.31,-1458.11,0.0
0.931590100,44803,210563.55,-1452.12,0.0
0.931609900,44792,201690.27,-1437.84,0.0
0.949701100,44782,193208.91,-1415.97,0.0
0.949720500,44792,185105.91,-1387.68,0.0
0.967328500,44793,177367.27,-1354.66,0.0
0.967347000,44778,169978.66,-1318.52,0.0
0.986099500,44789,162925.40,-1280.63,0.0
0.986472700,44802,156192.58,-1241.96,0.0
1.014098600,44800,149765.55,-1202.63,0.0
1.014447800,44801,143630.52,-1161.99,0.0
1.032001800,44809,137774.57,-1119.47,0.0
1.032021600,44803,132185.52,-1075.26,0.0
1.277995300,44805,126851.78,-1030.16,0.0
1.278012400,44805,121762.03,-985.07,0.0
1.278025600,44809,116905.12,-940.67,0.0
1.278038000,44803,112270.01,-897.39,0.0
1.278049900,44801,107845.77,-855.54,0.0
1.278061600,44813,103621.47,-815.38,0.0
1.278073900,44801,99586.35,-777.04,0.0
1.278085600,44792,95729.87,-740.84,0.0
1.278097400,44809,92041.53,-707.77,0.0
1.278109100,44823,88511.11,-678.75,0.0
1.278120600,44803,85129.28,-653.58,0.0
1.278132600,44818,81887.93,-631.36,0.0
1.278144200,44839,78779.97,-611.04,0.0
1.278156300,44813,75799.49,-591.60,0.0
1.278168400,44819,72941.58,-572.50,0.0
1.278181200,44833,70201.76,-554.05,0.0
1.278192800,44834,67575.69,-536.68,0.0
1.278204700,44823,65059.46,-520.26,0.0
1.278217400,44826,62649.32,-504.31,0.0
1.278229100,44819,60341.28,-488.72,0.0
1.278240900,44832,58130.78,-484.07,0.0
1.278253000,44840,56013.06,-546.17,0.0
1.278264700,44822,53983.52,-799.82,0.0
1.278276600,44829,52037.89,-1392.37,0.0
1.290558100,44814,50171.71,-2412.40,0.0
1.290575700,44816,48380.03,-3858.71,0.0
1.315571300,44811,46657.34,-5662.14,0.0
1.315590600,44820,44997.69,-7715.67,0.0
1.332683400,44832,43395.35,-9896.22,0.0
1.332702100,44826,41845.43,-12080.12,0.0
1.349471800,44829,40344.37,-14153.88,0.0
1.349491000,44833,38889.73,-16020.88,0.0
1.367934900,44842,37480.07,-17604.61,0.0
1.367959600,44837,36114.84,-18849.64,0.0
1.386574900,44841,34794.26,-19721.38,0.0
1.386594000,44857,33519.07,-20204.41,0.0
1.413983800,44850,32290.46,-20299.93,0.0
1.414392500,44862,31110.03,-20023.05,0.0
1.427131100,44843,29979.56,-19400.50,0.0
1.427149100,44857,28900.42,-18468.19,0.0
1.446107100,44864,27873.23,-17268.18,0.0
1.446593000,44858,26898.00,-15845.56,0.0
1.466386100,44857,25974.30,-14246.58,0.0
1.466464500,44847,25101.04,-12517.54,0.0
1.490296200,44874,24276.24,-10703.25,0.0
1.490313900,44851,23497.27,-8845.35,0.0
1.508982000,44818,22760.98,-6981.61,0.0
1.509001500,44797,22062.79,-5146.13,0.0
1.526507900,44792,21395.48,-3369.07,0.0
1.526568400,44766,20748.99,-1675.48,0.0
1.546394900,44748,20111.15,-84.63,0.0
1.546490700,44739,19468.33,1389.24,0.0
1.573638200,44754,18806.43,2736.28,0.0
1.573657900,44738,18112.49,3950.87,0.0
1.591452300,44747,17376.10,5031.23,0.0
1.591472300,44719,16590.14,5978.43,0.0
1.606080000,44713,15750.48,6795.08,0.0
1.606257000,44718,14855.47,7484.54,0.0
1.626120800,44734,13905.73,8051.15,0.0
1.626337500,44715,12904.63,8500.87,0.0
1.646450500,44716,11858.35,8841.11,0.0
1.646613800,44711,10775.14,9080.16,0.0
1.666844100,44699,9664.43,9226.87,0.0
1.666862800,44697,8536.10,9290.33,0.0
1.686205200,44680,7399.78,9279.53,0.0
1.686407500,44687,6264.32,9203.33,0.0
1.712626700,44674,5137.62,9070.94,0.0
1.713051500,44661,4026.60,8891.74,0.0
1.731737000,44655,2937.02,8674.56,0.0
1.731756300,44651,1873.28,8427.19,0.0
1.748863100,44653,838.57,8156.27,0.0
1.748886200,44660,-164.53,7867.53,0.0
1.767326400,44643,-1133.51,7566.15,0.0
1.786408600,44670,-2065.57,7256.85,0.0
1.786503100,44638,-2957.57,6943.81,0.0
1.814018600,44653,-3806.16,6630.39,0.0
1.814281300,44653,-4608.09,6319.02,0.0
1.862228000,44636,-5360.39,6011.46,0.0
1.862247200,44648,-6060.54,5708.66,0.0
1.862259800,44645,-6706.64,5411.29,0.0
1.862271600,44653,-7297.25,5120.61,0.0
1.872945600,44650,-7831.14,4838.56,0.0
1.872965000,44672,-8307.08,4567.13,0.0
1.886145100,44647,-8723.66,4308.07,0.0
1.886441200,44652,-9079.55,4062.66,0.0
1.909219700,44645,-9374.15,3831.45,0.0
1.909239800,44667,-9607.99,3614.67,0.0
1.926377400,44658,-9782.37,3412.78,0.0
1.926401900,44660,-9898.88,3226.33,0.0
1.946491100,44637,-9959.52,3055.14,0.0
1.946510500,44639,-9967.29,2898.05,0.0
1.973362100,44642,-9926.64,2753.10,0.0
1.973381900,44643,-9843.19,2618.03,0.0
1.990710900,44645,-9723.06,2490.77,0.0
1.990730100,44643,-9572.25,2369.70,0.0
2.006009100,44636,-9396.40,2253.71,0.0
2.006242500,44666,-9200.66,2142.53,0.0
2.025927400,44650,-8989.31,2036.66,0.0
2.026073000,44635,-8765.52,1936.67,0.0
2.286800700,44645,-8531.90,1842.67,0.0
2.286820300,44640,-8291.08,1754.55,0.0
2.286835600,44641,-8045.81,1672.32,0.0
2.286849600,44653,-7798.65,1595.73,0.0
2.286863000,44652,-7551.66,1524.17,0.0
2.286877000,44652,-7306.06,1456.93,0.0
2.286889900,44662,-7062.28,1393.58,0.0
2.286907100,44654,-6820.04,1334.09,0.0
2.286923300,44639,-6578.71,1278.47,0.0
2.286936600,44656,-6337.90,1226.29,0.0
2.286949500,44629,-6097.82,1176.76,0.0
2.286963000,44666,-5859.33,1128.99,0.0
2.286976900,44666,-5623.41,1082.49,0.0
2.286989800,44643,-5390.48,1037.35,0.0
2.287002600,44646,-5160.48,993.53,0.0
2.287015600,44653,-4933.61,950.34,0.0
2.287029100,44655,-4710.51,907.06,0.0
2.287042200,44659,-4491.82,863.50,0.0
2.287055200,44650,-4277.89,819.94,0.0
2.287068700,44663,-4068.80,776.81,0.0
2.287081400,44658,-3864.50,734.51,0.0
2.287094200,44677,-3664.65,669.46,0.0
2.287107500,44649,-3468.48,475.71,0.0
2.287121300,44650,-3275.16,-34.14,0.0
2.287934500,44654,-3084.49,-1021.01,0.0
2.287953700,44657,-2897.08,-2534.56,0.0
2.309141800,44636,-2714.07,-4523.75,0.0
2.309163600,44655,-2537.00,-6877.30,0.0
2.328102200,44653,-2367.70,-9453.83,0.0
2.328130800,44658,-2207.83,-12103.72,0.0
2.346155900,44654,-2058.41,-14684.54,0.0
2.346322400,44645,-1919.86,-17071.15,0.0
2.374360300,44659,-1792.35,-19161.34,0.0
2.374384700,44654,-1675.84,-20878.05,0.0
2.391374800,44656,-1570.02,-22168.93,0.0
2.391396800,44644,-1474.25,-23004.82,0.0
2.406227600,44646,-1387.97,-23377.57,0.0
2.406491700,44642,-1310.95,-23297.22,0.0
2.427450100,44655,-1243.31,-22788.95,0.0
2.427553100,44653,-1185.17,-21889.79,0.0
2.445909100,44660,-1136.15,-20645.50,0.0
2.446076400,44647,-1095.23,-19107.80,0.0
2.468467600,44648,-1061.10,-17331.57,0.0
2.468488200,44655,-1032.56,-15372.45,0.0
2.486028800,44670,-1008.45,-13284.85,0.0
2.486209000,44660,-987.30,-11119.91,0.0
2.514886500,44662,-967.08,-8924.41,0.0
2.514949800,44666,-945.56,-6740.71,0.0
2.532310700,44654,-920.69,-4606.68,107.6
2.532332100,44670,-890.84,-2555.29,107.6
2.554476100,44652,-854.90,-613.98,107.6
2.554494300,44658,-812.38,1195.90,107.6
2.568782900,44646,-763.50,2858.90,107.6
2.568810600,44625,-709.51,4364.89,107.6
2.586594700,44599,-653.15,5708.54,107.6
2.586814400,44595,-599.36,6888.83,107.6
2.616352300,44580,-555.33,7908.18,107.6
2.616380000,44565,-529.91,8771.53,107.6
2.634781700,44557,-532.81,9485.62,107.6
2.634826900,44540,-573.93,10058.86,107.6
2.648818600,44549,-662.65,10500.88,107.6
2.648853600,44570,-806.81,10822.15,107.6
2.667844800,44561,-1011.35,11034.17,107.6
2.667884500,44545,-1277.45,11149.19,107.6
2.692033800,44549,-1603.01,11178.80,107.6
2.692061900,44547,-1983.65,11133.29,107.6
2.710142300,44554,-2413.24,11022.03,107.6
2.710176600,44526,-2884.17,10853.93,107.6
2.729085500,44550,-3387.97,10637.18,107.6
2.729134900,44534,-3915.87,10379.22,107.6
2.749490700,44519,-4459.06,10086.97,107.6
2.749535700,44534,-5009.20,9766.66,107.6
2.777295800,44520,-5558.75,9424.09,107.6
2.777332100,44508,-6101.05,9065.21,107.6
2.793100700,44481,-6630.64,8695.76,107.6
2.793119600,44496,-7143.94,8320.50,107.6
2.806417400,44479,-7639.34,7943.33,107.6
2.806518100,44493,-8116.52,7567.80,107.6
2.826915000,44505,-8575.51,7197.21,107.6
2.827189000,44506,-9015.70,6834.72,107.6
2.846379200,44489,-9435.19,6483.05,107.6
2.846556400,44496,-9831.20,6143.89,107.6
2.869851900,44484,-10200.80,5817.81,107.6
2.869876500,44501,-10541.35,5505.00,107.6
2.892347100,44507,-10850.37,5205.95,107.6
2.892399500,44503,-11125.18,4921.66,107.6
2.914101600,44500,-11362.76,4653.20,107.6
2.914121900,44499,-11560.22,4401.13,107.6
2.932875200,44494,-11715.33,4165.34,107.6
2.932894600,44481,-11826.92,3945.04,107.6
2.950576700,44477,-11895.27,3738.83,107.6
2.950596700,44470,-11922.34,3544.95,107.6
2.969169200,44457,-11911.81,3361.86,107.6
2.969199600,44453,-11868.87,3188.35,107.6
2.986285000,44447,-11799.96,3023.31,107.6
2.986305200,44468,-11712.16,2865.79,107.6
3.014838600,44469,-11612.17,2715.54,107.6
3.014934400,44464,-11505.19,2573.30,107.6
3.032753100,44489,-11394.48,2439.75,107.6
3.032771500,44481,-11281.31,2314.93,107.6
3.294067200,44468,-11165.05,2198.54,107.6
3.294085400,44459,-11044.06,2089.96,107.6
3.294099200,44450,-10916.96,1987.63,107.6
3.294112100,44473,-10783.27,1889.53,107.6
3.294125100,44490,-10643.05,1794.56,107.6
3.294138400,44493,-10495.68,1703.24,107.6
3.294151200,44512,-10339.07,1617.00,107.6
3.294163600,44498,-10169.57,1537.05,107.6
3.294176300,44518,-9982.59,1463.72,107.6
3.294189200,44529,-9773.17,1396.75,107.6
3.294201400,44530,-9536.28,1335.91,107.6
3.294213900,44545,-9266.91,1281.02,107.6
3.294226200,44539,-8960.41,1231.57,107.6
3.294239400,44537,-8612.99,1186.72,107.6
3.294251800,44551,-8222.30,1145.37,107.6
3.294264100,44537,-7787.71,1106.41,107.6
3.294276600,44564,-7310.29,1069.09,107.6
3.294296400,44571,-6792.36,1033.18,107.6
3.294310600,44566,-6236.85,998.86,107.6
3.294323900,44569,-5647.02,966.34,107.6
3.294337200,44587,-5026.60,914.90,107.6
3.294350100,44577,-4379.74,750.96,107.6
3.294363000,44571,-3710.97,306.24,107.6
3.294376800,44546,-3025.61,-568.63,107.6
3.294390000,44568,-2330.48,-1925.62,107.6
3.314459000,44574,-1633.82,-3723.95,107.6
3.314476400,44568,-944.24,-5865.23,107.6
3.333127500,44562,-269.87,-8221.74,107.6
3.333146700,44564,381.78,-10657.16,107.6
3.349849600,44548,1003.62,-13040.60,107.6
3.349868700,44560,1588.91,-15256.04,107.6
3.368437600,44565,2131.48,-17208.01,107.6
3.368457100,44558,2626.24,-18823.88,107.6
3.386362500,44561,3069.56,-20053.67,107.6
3.388208400,44567,3459.25,-20868.83,107.6
3.416994200,44572,3794.55,-21260.18,107.6
3.417265200,44575,4076.29,-21235.20,107.6
3.434353800,44572,4306.82,-20815.26,107.6
3.434373300,44569,4489.65,-20032.99,107.6
3.446044000,44569,4628.90,-18929.54,107.6
3.446154700,44563,4728.72,-17551.84,107.6
3.466285600,44565,4793.03,-15950.19,107.6
3.466382000,44579,4825.42,-14176.13,107.6
3.489862700,44567,4829.38,-12280.12,107.6
3.489881900,44584,4808.57,-10309.80,107.6
3.508106000,44556,4766.78,-8308.98,107.6
3.508125800,44588,4707.58,-6316.90,107.6
3.526287800,44571,4634.28,-4367.85,107.6
3.526307600,44571,4550.00,-2490.80,107.6
3.546364400,44590,4457.63,-709.80,107.6
3.546383500,44570,4359.88,955.86,107.6
3.572883800,44569,4259.18,2491.44,107.6
3.572920100,44565,4157.36,3886.17,107.5
3.590734400,44556,4055.19,5133.23,107.3
3.590753400,44554,3952.30,6229.96,106.8
3.606831600,44526,3847.18,7177.11,106.1
3.606852300,44500,3736.79,7977.80,105.3
3.625904000,44477,3615.94,8637.37,104.4
3.626135300,44452,3476.82,9163.40,103.2
3.646215000,44427,3309.08,9564.91,101.9
3.646368200,44413,3100.41,9851.93,100.5
3.666800000,44407,2837.53,10035.67,99.0
3.666820600,44406,2507.69,10128.33,97.4
3.686103300,44380,2100.14,10142.04,95.7
3.686288800,44376,1607.00,10087.79,93.9
3.713454300,44381,1023.51,9975.41,92.0
3.713587100,44384,348.42,9814.21,90.1
3.731002600,44388,-415.48,9613.30,88.2
3.731022400,44361,-1261.23,9380.97,86.4
3.749577000,44343,-2178.69,9123.86,84.5
3.749595900,44336,-3156.25,8846.86,82.6
3.766905900,44294,-4182.33,8553.86,80.8
3.766926500,44306,-5246.40,8248.29,79.1
3.785904400,44286,-6339.37,7933.39,77.5
3.785995700,44281,-7453.30,7612.62,76.0
3.813168800,44245,-8581.06,7289.47,74.6
3.813268100,44241,-9716.52,6967.23,73.3
3.868048600,44214,-10854.96,6648.90,72.1
3.868066200,44194,-11993.09,6337.11,71.2
3.868079500,44210,-13128.92,6034.02,70.4
3.868091900,44172,-14261.09,5741.77,69.7
3.868104700,44143,-15388.35,5462.23,69.2
3.868117600,44116,-16510.01,5195.95,69.0
3.891288400,44114,-17626.64,4942.23,68.9
3.891308700,44072,-18739.99,4700.18,68.9
3.909416900,44040,-19852.68,4469.02,68.9
3.909435400,44017,-20968.40,4247.86,68.9
3.926226900,43973,-22092.10,4035.87,68.9
3.926245400,43937,-23230.03,3832.60,68.9
3.945877500,43901,-24389.73,3637.62,68.9
3.946677600,43883,-25579.82,3450.54,68.9
3.973947300,43853,-26809.16,3271.36,68.9
3.973964500,43822,-28085.82,3100.41,68.9
3.991825900,43801,-29416.32,2937.81,68.9
3.991843500,43812,-30805.06,2783.09,68.9
4.006391600,43797,-32253.14,2635.46,68.9
4.006532600,43817,-33757.17,2494.23,68.9
4.026511100,43817,-35308.37,2358.86,68.9
4.026588800,43835,-36892.28,2228.70,68.9
4.272279300,43831,-38489.07,2103.08,68.9
4.272297700,43831,-40074.60,1981.74,68.9
4.272312800,43840,-41622.14,1864.70,68.9
4.272326100,43816,-43104.15,1751.86,68.9
4.272340200,43814,-44494.15,1642.98,68.9
4.272353300,43797,-45768.59,1537.50,68.9
4.272366100,43785,-46908.22,1434.77,68.9
4.272378000,43783,-47898.86,1334.35,68.9
4.272389900,43776,-48731.44,1236.32,68.9
4.272402400,43769,-49401.51,1141.46,68.9
4.272415500,43740,-49908.80,1051.02,68.9
4.272428000,43729,-50257.01,966.30,68.9
4.272440700,43700,-50453.96,888.40,68.9
4.272452600,43678,-50511.46,818.14,68.9
4.272464700,43680,-50444.83,755.79,68.9
4.272476900,43677,-50271.78,701.03,68.9
4.272489200,43672,-50010.62,653.42,68.9
4.272501500,43677,-49678.66,612.68,68.9
4.272517100,43663,-49291.12,578.51,68.9
4.272529200,43686,-48860.61,550.38,68.9
4.272541200,43678,-48396.70,504.34,68.9
4.272552800,43660,-47905.85,336.56,68.9
4.272639600,43658,-47392.03,-135.50,68.9
4.272652500,43645,-46857.86,-1068.27,68.9
4.286092300,43634,-46305.47,-2510.13,68.9
4.286358200,43625,-45737.07,-4412.12,68.9
4.308297800,43615,-45155.29,-6667.27,68.9
4.308318600,43617,-44563.23,-9139.24,68.9
4.326352600,43594,-43964.27,-11683.22,68.9
4.326381100,43594,-43361.93,-14161.00,68.9
4.346713600,43585,-42759.90,-16451.01,68.9
4.347049500,43600,-42161.76,-18453.70,68.9
4.372749700,43580,-41570.37,-20093.67,68.9
4.372768500,43581,-40987.56,-21320.63,68.9
4.389941600,43595,-40414.10,-22108.32,68.9
4.389961300,43604,-39849.57,-22451.18,68.9
4.406111600,43585,-39291.92,-22360.69,68.9
4.406291700,43593,-38737.67,-21862.39,68.9
4.426280700,43596,-38182.65,-20993.03,68.9
4.426476500,43597,-37622.40,-19797.09,68.9
4.446011400,43606,-37052.30,-18323.65,68.9
4.446086900,43612,-36467.49,-16623.65,68.9
4.467439100,43571,-35863.21,-14748.31,68.9
4.467459700,43575,-35235.76,-12748.37,68.9
4.485896100,43592,-34583.47,-10672.70,68.9
4.486259300,43568,-33906.71,-8566.59,68.9
4.505857700,43575,-33207.20,-6471.05,68.9
4.530823000,43586,-32487.67,-4422.55,68.9
4.530842400,43572,-31751.35,-2451.95,68.9
4.549175200,43583,-31001.56,-584.35,68.9
4.549193900,43563,-30241.49,1160.34,68.9
4.567044100,43569,-29474.47,2766.87,68.9
4.567064100,43562,-28704.07,4224.33,68.8
4.586238900,43552,-27934.18,5525.96,68.8
4.586424600,43535,-27169.07,6669.01,68.7
4.614087200,43518,-26413.77,7654.27,68.6
4.614106200,43500,-25674.47,8485.43,68.4
4.626020400,43491,-24958.72,9168.31,68.3
4.626132500,43547,-24274.82,9710.66,68.1
4.646038200,43591,-23629.56,10123.10,67.9
4.646221900,43634,-23024.95,10419.13,67.7
4.666191700,43599,-22456.21,10613.08,67.5
4.666340100,43586,-21912.86,10717.56,67.3
4.690957200,43530,-21382.58,10743.07,67.0
4.690976500,43487,-20855.57,10698.97,66.8
4.707935200,43450,-20327.92,10594.59,66.5
4.707955500,43423,-19803.24,10439.53,66.3
4.725788700,43383,-19292.27,10243.53,66.0
4.725946700,43375,-18811.39,10016.09,65.8
4.746341600,43346,-18380.50,9765.86,65.5
4.746538800,43343,-18020.68,9499.96,65.3
4.772707000,43317,-17751.94,9223.77,65.1
4.772727000,43272,-17591.78,8941.21,64.9
4.790154500,43223,-17555.05,8654.78,64.6
4.790173900,43174,-17654.85,8365.62,64.5
4.806338100,43071,-17903.93,8073.42,64.3
4.806434700,43001,-18316.35,7776.31,64.1
4.826433900,42925,-18909.00,7471.44,64.0
4.826454100,42873,-19701.88,7156.42,63.9
4.846088600,42827,-20716.62,6830.15,63.8
4.846173200,42813,-21973.71,6493.10,63.8
4.867885800,42778,-23489.32,6147.64,63.7
4.867905500,42772,-25272.29,5797.88,63.7
4.885962100,42736,-27322.37,5448.59,63.7
4.886140500,42732,-29629.59,5104.21,63.7
4.906735600,42728,-32174.55,4768.70,63.7
4.906769200,42710,-34929.02,4446.03,63.7
4.932367500,42684,-37857.17,4139.71,63.7
4.932390000,42700,-40917.54,3851.67,63.7
4.949934900,42681,-44064.89,3582.27,63.7
4.949954700,42660,-47251.85,3331.07,63.7
4.967948500,42675,-50430.63,3096.96,63.7
4.967968700,42674,-53554.61,2878.64,63.7
4.986231900,42666,-56579.16,2675.39,63.7
4.986319900,42657,-59462.41,2486.75,63.7
5.014842700,42657,-62166.48,2312.18,63.7
5.015109500,42637,-64658.53,2150.82,63.7
5.027108200,42653,-66911.47,2001.26,63.7
5.027127300,42640,-68904.20,1861.90,63.7
5.272484700,42628,-70621.37,1731.63,63.7
5.272501900,42641,-72053.28,1609.72,63.7
5.272515100,42630,-73195.63,1495.81,63.7
5.272527800,42623,-74048.89,1390.02,63.7
5.272540400,42624,-74617.86,1292.66,63.7
5.272552800,42623,-74911.28,1203.85,63.7
5.272564700,42619,-74941.17,1123.52,63.7
5.272576300,42624,-74722.08,1051.52,63.7
5.272587700,42603,-74270.54,987.78,63.7
5.272599200,42636,-73604.61,932.22,63.7
5.272610700,42604,-72743.24,884.83,63.7
5.272623000,42610,-71705.79,845.40,63.7
5.272634500,42608,-70511.95,812.98,63.7
5.272646300,42601,-69181.61,786.35,63.7
5.272657700,42611,-67734.53,765.01,63.7
5.272669000,42594,-66189.88,749.22,63.7
5.272680200,42608,-64565.97,739.13,63.7
5.272691700,42588,-62880.08,734.18,63.7
5.272703000,42597,-61148.44,733.27,63.7
5.272715000,42596,-59386.11,735.30,63.7
5.272726400,42588,-57606.88,738.79,63.7
5.272738000,42594,-55823.08,721.43,63.7
5.272749500,42591,-54045.60,594.52,63.7
5.272761200,42580,-52283.87,206.99,63.7
5.285949700,42560,-50546.20,-568.32,63.7
5.286108900,42552,-48840.48,-1769.75,63.7
5.305943200,42575,-47174.58,-3356.00,63.7
5.314004700,42575,-45555.83,-5237.08,63.7
5.332191100,42562,-43989.94,-7297.69,63.7
5.332209200,42566,-42480.68,-9416.02,63.7
5.348796700,42557,-41030.32,-11477.22,63.7
5.348815300,42559,-39640.06,-13381.00,63.7
5.367255300,42549,-38310.24,-15045.59,63.7
5.367273500,42555,-37040.57,-16409.63,63.7
5.387272800,42556,-35830.18,-17432.11,63.7
5.387292300,42554,-34677.48,-18091.06,63.7
5.413919400,42550,-33580.13,-18381.67,63.7
5.414075200,42559,-32535.19,-18313.68,63.7
5.432071400,42549,-31539.24,-17908.17,63.7
5.432109100,42556,-30588.49,-17194.54,63.7
5.446015900,42548,-29678.97,-16208.62,63.7
5.446093100,42536,-28806.85,-14991.10,63.7
5.466327700,42540,-27968.82,-13585.89,63.7
5.466413700,42536,-27162.40,-12038.11,63.7
5.490367600,42553,-26385.71,-10391.81,63.7
5.490389200,42539,-25636.93,-8688.31,63.7
5.508097600,42540,-24914.06,-6965.23,63.7
5.508115900,42542,-24215.00,-5256.19,63.7
5.525986100,42550,-23537.73,-3590.43,63.7
5.526125400,42550,-22880.12,-1992.61,63.7
5.546356300,42576,-22239.52,-482.77,63.7
5.546525300,42573,-21612.46,924.01,63.7
5.572752900,42556,-20994.51,2217.12,63.7
5.572777000,42572,-20380.96,3389.15,63.7
5.591254100,42579,-19767.61,4435.20,63.7
5.591274000,42582,-19150.82,5353.06,63.6
5.609893800,42571,-18527.34,6143.16,63.6
5.609926500,42581,-17894.61,6808.13,63.5
5.626206000,42593,-17251.03,7352.71,63.5
5.626289400,42585,-16595.79,7783.96,63.4
5.656339500,42573,-15928.67,8110.60,63.3
5.656434400,42597,-15250.38,8341.57,63.2
5.667165700,42576,-14562.64,8485.41,63.1
5.667184300,42607,-13867.82,8550.88,62.9
5.685836700,42588,-13168.56,8547.47,62.8
5.686045500,42595,-12467.47,8484.86,62.7
5.706046200,42589,-11767.28,8371.95,62.6
5.713301700,42578,-11071.10,8216.68,62.4
5.731272500,42578,-10382.72,8026.30,62.3
5.731292500,42551,-9706.83,7807.85,62.1
5.750407800,42529,-9049.45,7568.71,62.0
5.750426800,42511,-8418.40,7316.47,61.9
5.766561300,42492,-7823.63,7058.38,61.7
5.766581300,42471,-7276.88,6801.22,61.6
5.785981300,42446,-6791.16,6550.71,61.5
5.786138400,42436,-6380.12,6311.12,61.4
5.805843100,42422,-6057.26,6085.17,61.3
5.813681100,42461,-5834.61,5874.19,61.2
5.862869800,42430,-5720.95,5678.62,61.1
5.862889900,42434,-5720.47,5498.14,61.0
5.862904500,42450,-5832.74,5331.40,61.0
5.872704600,42446,-6052.88,5176.43,60.9
5.872724500,42442,-6371.85,5030.96,60.9
5.886159500,42441,-6777.18,4892.14,60.8
5.886394100,42437,-7254.20,4756.68,60.8
5.907940500,42419,-7787.16,4621.69,60.8
5.907963100,42417,-8360.45,4485.11,60.8
5.926012700,42424,-8959.52,4346.03,60.8
5.926199800,42413,-9571.13,4204.62,60.8
5.945835900,42405,-10183.35,4061.56,60.8
5.946144900,42403,-10785.76,3917.63,60.8
5.972450400,42408,-11369.63,3773.54,60.8
5.972467800,42396,-11927.74,3630.05,60.8
5.990509600,42387,-12454.24,3487.81,60.8
5.990538100,42397,-12944.69,3347.25,60.8
6.006058000,42392,-13395.96,3208.77,60.8
6.006242700,42394,-13805.78,3072.42,60.8
6.026269200,42377,-14172.49,2937.50,60.8
6.026287600,42400,-14495.05,2802.89,60.8
6.352399700,42371,-14773.04,2667.74,60.8
6.352420200,42393,-15006.52,2532.12,60.8
6.352434500,42377,-15196.03,2396.78,60.8
6.352448700,42378,-15342.45,2262.48,60.8
6.352461300,42377,-15447.09,2129.55,60.8
6.352474100,42383,-15511.63,1998.28,60.8
6.352486600,42376,-15537.91,1869.32,60.8
6.352499200,42374,-15527.79,1743.74,60.8
6.352512100,42370,-15483.27,1622.59,60.8
6.352524800,42388,-15406.55,1506.58,60.8
6.352538300,42353,-15299.85,1396.14,60.8
6.352551600,42354,-15165.65,1291.18,60.8
6.352566300,42376,-15007.07,1191.08,60.8
6.352579000,42368,-14827.61,1095.52,60.8
6.352591900,42355,-14630.45,1005.19,60.8
6.352607800,42368,-14418.31,920.96,60.8
6.352626100,42373,-14193.63,842.95,60.8
6.352639000,42376,-13958.27,770.63,60.8
6.352659400,42354,-13713.29,703.44,60.8
6.352672100,42377,-13459.31,640.95,60.8
6.352684900,42380,-13196.84,582.95,60.8
6.352698100,42375,-12925.96,505.42,60.8
6.352716500,42376,-12646.23,297.85,60.8
6.352880400,42371,-12357.05,-242.23,60.8
6.352898300,42368,-12058.07,-1298.83,60.8
6.352911500,42365,-11749.56,-2939.82,60.8
6.352924000,42354,-11432.57,-5118.82,60.8
6.352957000,42354,-11109.11,-7717.74,60.8
6.352972900,42345,-10782.13,-10581.89,60.8
6.352985400,42356,-10455.36,-13545.39,60.8
6.353318400,42355,-10132.73,-16448.84,60.8
6.353335900,42360,-9817.77,-19150.62,60.8
6.375224700,42379,-9512.98,-21533.25,60.8
6.375244700,42356,-9219.47,-23506.15,60.8
6.391864200,42349,-8937.18,-25006.63,60.8
6.391884400,42354,-8665.75,-25999.37,60.8
6.406519400,42353,-8405.15,-26473.59,60.8
6.406687700,42350,-8155.58,-26439.04,60.8
6.425847400,42352,-7917.26,-25922.38,60.8
6.426481900,42351,-7690.39,-24964.03,60.8
6.446023700,42348,-7475.00,-23614.55,60.8
6.446373200,42349,-7271.02,-21930.72,60.8
6.467892800,42372,-7078.13,-19972.49,60.8
6.467913400,42364,-6895.38,-17800.58,60.8
6.485796100,42349,-6720.88,-15474.69,60.8
6.485977500,42360,-6552.38,-13052.40,60.8
6.505840800,42361,-6387.86,-10588.18,60.8
6.514094700,42351,-6225.65,-8131.87,60.8
6.533001700,42365,-6064.39,-5727.46,60.8
6.533021900,42353,-5903.02,-3412.42,60.8
6.549535200,42355,-5740.83,-1217.68,60.8
6.549555500,42364,-5577.42,832.20,60.8
6.566545800,42356,-5412.65,2718.85,60.8
6.566566400,42360,-5246.46,4429.95,60.8
6.585881200,42358,-5078.91,5958.77,60.8
6.585983200,42359,-4910.16,7303.62,60.9
6.614565000,42352,-4740.58,8467.13,60.9
6.614851000,42365,-4570.73,9455.05,60.9
6.632562100,42360,-4401.24,10275.02,60.9
6.632583300,42354,-4232.65,10936.19,60.9
6.646022800,42330,-4065.62,11448.99,60.9
6.646343300,42312,-3901.73,11824.55,60.9
6.665927600,42289,-3744.42,12074.38,60.9
6.666263000,42276,-3599.53,12210.98,60.9
6.690883600,42272,-3475.14,12248.52,60.9
6.690903200,42243,-3380.76,12202.29,60.9
6.708561900,42236,-3326.57,12087.66,61.0
6.708582100,42213,-3322.85,11919.06,61.0
6.726504800,42202,-3379.53,11708.83,61.0
6.726524900,42205,-3505.68,11466.54,61.0
6.745947900,42196,-3708.60,11199.29,61.0
6.746470200,42190,-3992.97,10912.93,61.0
6.772907600,42188,-4360.44,10612.50,61.0
6.772927300,42193,-4809.53,10302.04,61.0
6.791670300,42185,-5335.63,9984.46,61.0
6.791690800,42175,-5931.24,9661.50,61.1
6.805918400,42181,-6586.66,9333.80,61.1
6.806422300,42177,-7290.69,9001.68,61.1
6.825916500,42170,-8031.08,8665.88,61.1
6.826118000,42153,-8795.08,8327.75,61.1
6.845837900,42158,-9570.37,7988.92,61.1
6.846042800,42128,-10345.75,7651.31,61.1
6.868548000,42127,-11111.69,7316.90,61.1
6.868568600,42132,-11860.69,6987.25,61.1
6.885953800,42133,-12586.89,6663.72,61.1
6.886052800,42124,-13285.31,6347.78,61.1
6.905990300,42123,-13951.42,6040.60,61.1
6.913474300,42114,-14581.16,5742.68,61.1
6.932358600,42117,-15171.10,5453.67,61.1
6.932377300,42117,-15718.42,5172.58,61.1
6.950301800,42122,-16220.67,4898.78,61.1
6.950320600,42115,-16675.54,4632.72,61.1
6.967469700,42127,-17080.69,4375.68,61.1
6.967487900,42110,-17433.89,4128.97,61.1
6.986336200,42101,-17733.27,3893.10,61.1
6.986357400,42106,-17977.90,3667.60,61.1
7.005693100,42106,-18168.07,3451.59,61.1
7.013478400,42102,-18305.00,3244.19,61.1
7.026022600,42109,-18390.44,3044.59,61.1
7.026173800,42086,-18426.55,2852.32,61.1
7.290728500,42078,-18416.11,2667.29,61.1
7.290747500,42069,-18363.02,2489.50,61.1
7.290761300,42102,-18272.37,2319.31,61.1
7.290774400,42090,-18149.49,2157.91,61.1
7.290787300,42090,-17998.87,2006.73,61.1
7.290800100,42091,-17823.84,1866.36,61.1
7.290812400,42089,-17626.91,1736.72,61.1
7.290825400,42086,-17410.06,1617.41,61.1
7.290839000,42094,-17174.85,1507.64,61.1
7.290852000,42082,-16922.63,1406.59,61.1
7.290864600,42081,-16654.58,1313.85,61.1
7.290877200,42093,-16372.00,1228.94,61.1
7.290890500,42078,-16076.26,1150.96,61.1
7.290903700,42089,-15768.69,1078.71,61.1
7.290916300,42093,-15450.52,1011.31,61.1
7.290929400,42086,-15122.77,948.67,61.1
7.290942500,42078,-14786.20,890.80,61.1
7.290955100,42085,-14441.70,836.84,61.1
7.290968000,42085,-14090.49,785.51,61.1
7.290980400,42072,-13734.01,735.92,61.1
7.290992600,42076,-13373.92,668.70,61.1
7.291005800,42078,-13012.24,498.91,61.1
7.291019100,42074,-12651.15,77.03,61.1
7.291032700,42078,-12292.77,-724.74,61.1
7.291045700,42083,-11938.91,-1945.62,61.1
7.314242900,42083,-11590.87,-3544.70,61.1
7.314261800,42076,-11249.32,-5432.82,61.1
7.332570200,42083,-10914.48,-7497.11,61.1
7.332597500,42092,-10586.27,-9618.66,61.1
7.350132600,42083,-10264.19,-11683.98,61.1
7.350152900,42078,-9947.40,-13592.86,61.1
7.368121400,42061,-9635.17,-15263.63,61.1
7.368140500,42098,-9327.49,-16635.25,61.1
7.386360400,42083,-9024.68,-17666.36,61.1
7.386381100,42081,-8726.82,-18333.76,61.1
7.415106500,42071,-8433.71,-18631.64,61.1
7.415752400,42075,-8145.44,-18569.64,61.1
7.426505400,42071,-7862.65,-18169.17,61.1
7.426524300,42082,-7586.41,-17460.22,61.1
7.446012600,42080,-7317.77,-16479.16,61.1
7.446317700,42086,-7057.34,-15266.69,61.1
7.465922500,42093,-6805.11,-13865.78,61.1
7.466154200,42088,-6560.33,-12319.64,61.1
7.490623400,42095,-6321.62,-10670.26,61.1
7.490643800,42070,-6087.36,-8958.00,61.1
7.508831500,42097,-5856.23,-7221.09,61.1
7.508849400,42088,-5627.41,-5494.22,61.1
7.525998500,42095,-5400.31,-3807.50,61.1
7.526020200,42101,-5174.25,-2186.49,61.1
7.546300700,42109,-4948.29,-652.03,61.1
7.546319600,42110,-4721.07,779.83,61.1
7.572678100,42100,-4490.87,2097.04,61.1
7.572703200,42097,-4256.11,3290.62,61.1
7.589794100,42090,-4016.00,4354.80,61.1
7.589813700,42080,-3771.05,5287.71,61.1
7.606057700,42043,-3523.44,6091.69,61.1
7.606220900,42046,-3277.56,6772.69,61.0
7.625802600,42032,-3040.24,7339.43,61.0
7.626322400,42002,-2820.25,7802.72,61.0
7.646108200,41976,-2627.87,8174.29,61.0
7.646189400,41743,-2476.03,8464.06,61.0
7.666991700,41747,-2384.08,8676.18,60.9
7.667013600,41742,-2380.52,8809.36,60.9
7.685766100,41741,-2500.06,8862.80,60.9
7.686060800,41722,-2776.83,8840.15,60.8
7.706610500,41734,-3238.98,8748.78,60.8
7.706794400,41734,-3905.67,8597.78,60.8
7.731664500,41731,-4785.37,8396.59,60.7
7.731686500,41739,-5875.58,8154.56,60.7
7.749322200,41709,-7163.66,7881.19,60.7
7.749341400,41720,-8628.80,7586.01,60.6
7.766960700,41708,-10244.22,7277.79,60.6
7.766979900,41707,-11979.16,6964.19,60.6
7.791163200,41695,-13800.47,6651.56,60.5
7.791189500,41675,-15674.41,6344.68,60.5
7.814701000,41666,-17568.34,6047.29,60.5
7.814958200,41670,-19452.19,5762.70,60.5
7.863381800,41662,-21298.98,5493.64,60.4
7.863412400,41661,-23084.77,5242.26,60.4
7.863445700,41666,-24788.58,5010.41,60.4
7.863457800,41654,-26392.22,4799.24,60.4
7.872833100,41651,-27880.31,4608.36,60.4
7.872850800,41661,-29240.40,4435.58,60.4
7.886033600,41655,-30462.86,4277.77,60.4
7.886301200,41657,-31540.51,4131.46,60.4
7.908060000,41651,-32468.47,3992.95,60.4
7.908083300,41646,-33244.21,3858.66,60.4
7.926416900,41663,-33867.52,3725.88,60.4
7.926437400,41648,-34340.23,3593.03,60.4
7.945949500,41631,-34665.89,3459.64,60.4
7.946118600,41650,-34850.00,3325.82,60.4
7.973237900,41637,-34899.97,3191.83,60.4
7.973262700,41635,-34824.61,3058.04,60.4
7.991037400,41637,-34633.77,2924.88,60.4
7.991057400,41628,-34338.03,2792.90,60.4
8.006419500,41631,-33948.48,2662.53,60.4
8.006600200,41637,-33476.39,2533.92,60.4
8.026286300,41627,-32932.77,2407.14,60.4
8.026304600,41623,-32328.15,2282.31,60.4
8.349401700,41615,-31672.66,2159.32,60.4
8.349419800,41631,-30976.18,2037.75,60.4
8.349433400,41636,-30247.97,1917.27,60.4
8.349446400,41622,-29496.07,1797.91,60.4
8.349458700,41626,-28727.17,1679.98,60.4
8.349472400,41619,-27947.06,1563.77,60.4
8.349485000,41624,-27160.93,1449.59,60.4
8.349496800,41631,-26373.44,1337.95,60.4
8.349509000,41632,-25588.40,1229.59,60.4
8.349522200,41636,-24808.56,1125.55,60.4
8.349534100,41621,-24035.67,1026.91,60.4
8.349546000,41631,-23270.95,934.23,60.4
8.349557800,41636,-22515.40,847.61,60.4
8.349570400,41632,-21769.82,767.31,60.4
8.349582600,41625,-21034.69,693.72,60.4
8.349594500,41610,-20310.57,626.86,60.4
8.349606500,41612,-19598.70,566.17,60.4
8.349618300,41637,-18901.14,510.91,60.4
8.349629900,41638,-18220.01,461.09,60.4
8.349641600,41636,-17556.43,417.70,60.4
8.349653100,41622,-16910.36,359.47,60.4
8.349665500,41628,-16281.35,185.64,60.4
8.349677300,41619,-15669.11,-285.91,60.4
8.349689200,41614,-15073.90,-1216.96,60.4
8.349701600,41603,-14496.61,-2664.35,60.4
8.349713500,41616,-13938.94,-4585.31,60.4
8.349725300,41616,-13403.00,-6874.98,60.4
8.349737700,41614,-12890.71,-9396.06,60.4
8.349749300,41611,-12403.38,-12001.21,60.4
8.349761500,41617,-11941.71,-14549.01,60.4
8.350590600,41620,-11505.81,-16913.75,60.4
8.350606900,41629,-11094.99,-18991.13,60.4
8.373285600,41621,-10707.62,-20701.35,60.4
8.373304800,41630,-10341.25,-21990.18,60.4
8.391824900,41620,-9992.95,-22827.96,60.4
8.391846000,41624,-9659.71,-23207.29,60.4
8.405876100,41634,-9338.72,-23139.30,60.4
8.406155000,41629,-9027.34,-22649.48,60.4
8.426383800,41631,-8723.02,-21774.14,60.4
8.445909500,41636,-8423.35,-20557.79,60.4
8.446133700,41628,-8126.22,-19050.54,60.4
8.467997900,41630,-7829.95,-17305.58,60.4
8.468016700,41636,-7533.47,-15377.16,60.4
8.485879500,41632,-7236.22,-13319.00,60.4
8.485952800,41634,-6938.02,-11182.50,60.4
8.506524000,41636,-6639.02,-9015.11,60.4
8.506849800,41642,-6339.57,-6859.12,60.4
8.532163100,41634,-6040.09,-4751.59,60.4
8.532183000,41641,-5741.05,-2724.81,60.4
8.550543700,41639,-5443.01,-806.30,60.4
8.550563800,41626,-5146.73,981.72,60.4
8.567762800,41630,-4853.35,2622.83,60.4
8.567783200,41648,-4564.51,4106.52,60.4
8.585940200,41640,-4281.89,5427.92,60.4
8.586553200,41619,-4006.78,6586.82,60.4
8.614024400,41594,-3740.64,7586.50,60.4
8.614044900,41589,-3486.30,8432.99,60.4
8.625762000,41567,-3248.62,9134.95,60.4
8.625938000,41547,-3034.45,9703.52,60.5
8.645825300,41541,-2852.33,10151.38,60.5
8.645965600,41532,-2711.89,10491.63,60.5
8.783746000,41506,-2622.92,10736.98,60.5
8.783782700,41494,-2594.81,10898.91,60.5
8.784263500,41470,-2636.34,10987.03,60.6
8.784318300,41507,-2755.28,11009.06,60.6
8.784350100,41468,-2957.38,10971.72,60.6
8.784377300,41472,-3245.38,10881.07,60.7
8.784403300,41504,-3618.87,10742.49,60.7
8.784429500,41508,-4073.79,10561.53,60.7
8.784464100,41483,-4601.90,10344.57,60.7
8.784498000,41472,-5191.55,10097.15,60.8
8.784531300,41462,-5829.63,9822.79,60.8
8.784564300,41473,-6503.24,9524.36,60.8
8.790661100,41444,-7200.17,9205.90,60.8
8.790929300,41455,-7909.21,8872.57,60.8
8.806838700,41456,-8620.31,8529.46,60.9
8.806984900,41438,-9324.46,8181.11,60.9
8.826330900,41441,-10013.62,7831.68,60.9
8.826471800,41422,-10680.93,7484.79,60.9
8.846812800,41416,-11321.05,7143.22,60.9
8.847131200,41427,-11930.24,6808.64,60.9
8.867756200,41437,-12505.89,6482.09,60.9
8.869098900,41435,-13045.53,6164.26,60.9
8.886565800,41431,-13546.22,5855.34,60.9
8.886660600,41438,-14004.60,5554.72,60.9
8.906199600,41435,-14417.17,5261.50,60.9
8.906930600,41423,-14780.65,4975.04,60.9
8.926056700,41438,-15092.29,4695.45,60.9
8.926323000,41438,-15350.08,4423.75,60.9
8.945985600,41424,-15552.64,4161.46,60.9
8.946017900,41424,-15699.30,3909.70,60.9
8.966396700,41418,-15790.53,3668.87,60.9
8.966416400,41419,-15828.16,3439.38,60.9
8.985751300,41425,-15815.11,3222.08,60.9
8.985924100,41432,-15754.90,3018.12,60.9
9.006429700,41436,-15650.98,2828.84,60.9
9.006744700,41424,-15506.37,2655.02,60.9
9.026017300,41422,-15323.81,2495.84,60.9
9.026527800,41447,-15106.11,2349.09,60.9
9.568087900,41433,-14856.05,2212.28,60.9
9.568107000,41422,-14576.05,2083.04,60.9
9.568121800,41422,-14268.63,1958.96,60.9
9.568135700,41422,-13936.96,1838.19,60.9
9.568149700,41413,-13584.99,1719.99,60.9
9.568164300,41425,-13217.17,1604.56,60.9
9.568178000,41433,-12838.02,1492.61,60.9
9.568191300,41427,-12451.56,1384.84,60.9
9.568205800,41429,-12060.91,1281.11,60.9
9.568219100,41445,-11668.35,1180.64,60.9
9.568232500,41447,-11275.25,1083.36,60.9
9.568246500,41440,-10881.91,990.43,60.9
9.568259800,41457,-10487.77,903.29,60.9
9.568273700,41443,-10091.80,822.96,60.9
9.568287700,41446,-9692.85,750.11,60.9
9.568301200,41430,-9290.21,684.84,60.9
9.568315200,41441,-8884.13,626.42,60.9
9.568328400,41437,-8475.93,573.50,60.9
9.568343200,41440,-8067.66,524.63,60.9
9.568356900,41437,-7661.76,478.83,60.9
9.568370300,41429,-7260.81,421.73,60.9
9.568384300,41426,-6867.65,286.24,60.9
9.568397900,41448,-6485.32,-59.25,60.9
9.568412000,41442,-6116.62,-747.49,60.9
9.568426000,41430,-5763.47,-1840.37,60.9
9.568439400,41424,-5427.18,-3318.02,60.9
9.568453000,41450,-5108.92,-5104.85,60.9
9.568467000,41428,-4809.66,-7095.33,60.9
9.568480300,41435,-4529.86,-9173.15,60.9
9.568494600,41420,-4269.66,-11224.97,60.9
9.568508200,41417,-4029.35,-13149.10,60.9
9.568522400,41422,-3809.64,-14860.62,60.9
9.568536600,41416,-3611.57,-16293.84,60.9
9.568550800,41426,-3436.11,-17402.74,60.9
9.568564400,41426,-3283.77,-18159.77,60.9
9.568577400,41438,-3154.20,-18553.82,60.9
9.568590900,41425,-3045.94,-18588.61,60.9
9.568604500,41445,-2956.54,-18280.85,60.9
9.568617300,41448,-2882.72,-17657.01,60.9
9.568630300,41424,-2820.45,-16750.62,60.9
9.568643200,41431,-2765.59,-15600.72,60.9
9.568657400,41437,-2714.66,-14249.81,60.9
9.568670800,41429,-2665.07,-12741.16,60.9
9.568683900,41453,-2614.76,-11117.06,60.9
9.568698000,41459,-2561.72,-9418.30,60.9
9.568711600,41458,-2503.45,-7683.55,60.9
9.568725100,41460,-2436.80,-5948.26,60.9
9.568738000,41461,-2358.46,-4243.73,60.9
9.568751200,41447,-2265.49,-2596.52,60.9
9.568764400,41445,-2156.03,-1028.60,60.9
9.568778100,41468,-2029.60,442.20,60.9
9.568791900,41459,-1886.80,1802.03,60.9
9.568810300,41463,-1728.63,3040.54,60.9
9.568824800,41472,-1556.21,4150.64,60.9
9.586168900,41455,-1370.78,5128.68,60.9
9.586356200,41450,-1173.92,5974.19,60.9
9.607080000,41438,-968.10,6689.56,60.9
9.607911500,41407,-757.24,7280.13,60.9
9.626815800,41377,-547.42,7754.08,60.9
9.626836900,41392,-347.35,8121.84,60.8
9.647990300,41379,-167.88,8395.93,60.8
9.648152600,41346,-20.63,8590.71,60.8
9.666041800,41348,82.93,8720.40,60.8
9.666493100,41340,131.74,8797.10,60.7
9.685892500,41336,115.99,8830.15,60.7
9.706094300,41332,27.93,8826.18,60.7
9.706638300,41333,-137.46,8789.45,60.7
9.726202300,41343,-382.09,8722.50,60.6
9.726647800,41335,-704.45,8627.03,60.6
9.746090600,41330,-1099.71,8504.52,60.6
9.746318000,41325,-1560.40,8356.20,60.5
9.765919400,41337,-2077.28,8183.08,60.5
9.766155200,41316,-2639.85,7986.55,60.5
9.785817300,41300,-3237.07,7769.22,60.5
9.785995600,41292,-3858.38,7535.03,60.4
9.806389800,41297,-4494.68,7288.36,60.4
9.806753100,41299,-5138.23,7033.04,60.4
9.880203300,41271,-5782.23,6772.07,60.4
9.881339700,41275,-6420.78,6507.59,60.4
9.881387800,41277,-7049.13,6241.18,60.3
9.881430600,41267,-7663.51,5975.00,60.3
9.881473600,41260,-8260.73,5711.80,60.3
9.881514700,41262,-8838.09,5453.51,60.3
9.886023700,41269,-9393.35,5200.49,60.3
9.886241300,41264,-9924.21,4952.19,60.3
9.908138500,41265,-10428.09,4707.72,60.3
9.908289100,41282,-10901.98,4465.92,60.3
9.927275100,41277,-11342.32,4226.03,60.3
9.927322500,41285,-11744.87,3987.90,60.3
9.946375900,41273,-12104.98,3751.57,60.3
9.946656300,41280,-12418.13,3516.99,60.3
9.970155000,41264,-12680.62,3284.40,60.3
9.970547300,41268,-12890.02,3054.59,60.3
9.987305600,41263,-13045.48,2828.84,60.3
9.987339500,41273,-13147.66,2609.02,60.3
10.006644800,41254,-13198.35,2397.81,60.3
10.007025900,41253,-13200.34,2197.96,60.3
10.026309000,41251,-13157.54,2011.08,60.3
10.026333900,41255,-13074.80,1837.56,60.3
10.046308300,41243,-12957.54,1677.35,60.3
10.046675100,41267,-12811.25,1529.96,60.3
10.667840800,41270,-12640.93,1394.46,60.3
10.667912600,41244,-12450.47,1270.03,60.3
10.667971200,41254,-12242.88,1155.79,60.3
10.668026900,41265,-12020.91,1050.62,60.3
10.668082100,41264,-11786.99,953.48,60.3
10.668137200,41262,-11542.81,863.56,60.3
10.668191600,41268,-11289.35,780.02,60.3
10.668245200,41252,-11027.17,702.01,60.3
10.668299100,41256,-10756.84,629.05,60.3
10.668352600,41272,-10479.26,561.33,60.3
10.668407400,41259,-10195.40,499.47,60.3
10.668460900,41266,-9906.08,443.89,60.3
10.668515400,41267,-9611.94,394.35,60.3
10.668570400,41273,-9313.50,350.21,60.3
10.668623800,41269,-9011.06,310.68,60.3
10.668678200,41266,-8704.77,274.88,60.3
10.668821300,41273,-8394.86,241.85,60.3
10.668878600,41271,-8081.73,210.62,60.3
10.668932500,41279,-7765.88,180.35,60.3
10.668987800,41267,-7447.79,150.85,60.3
10.669041900,41262,-7128.07,122.53,60.3
10.669095900,41272,-6807.84,95.88,60.3
10.669151100,41269,-6488.70,71.41,60.3
10.669205700,41287,-6172.33,49.45,60.3
10.669260000,41284,-5859.95,30.08,60.3
10.669315300,41263,-5552.08,13.60,60.3
10.669372100,41272,-5249.06,0.47,60.3
10.669427000,41287,-4951.59,-9.16,60.3
10.669482500,41291,-4660.40,-15.50,60.3
10.669537600,41289,-4375.65,-18.96,60.3
10.669592600,41298,-4096.67,-20.00,60.3
10.669647200,41289,-3822.31,-18.94,60.3
10.669700500,41292,-3551.22,-16.22,60.3
10.669753500,41274,-3282.45,-12.57,60.3
10.669807500,41311,-3015.71,-8.87,60.3
10.669861600,41295,-2751.15,-5.63,60.3
10.669916000,41292,-2488.87,-3.12,60.3
10.669969600,41306,-2228.87,-1.62,60.3
10.670024300,41316,-1971.18,-1.44,60.3
10.670079700,41310,-1715.52,-2.30,60.3
10.670134600,41315,-1461.13,-3.44,60.3
10.670190200,41328,-1206.98,-4.44,60.3
10.670246500,41303,-952.00,-5.17,60.3
10.670301600,41326,-695.34,-5.65,60.3
10.670356600,41306,-436.79,-6.37,60.3
10.670411300,41317,-176.85,-8.17,60.3
10.670466700,41320,83.29,-11.76,60.3
10.670521900,41337,342.13,-17.35,60.3
10.670577000,41329,598.45,-24.71,60.3
10.670630100,41329,851.62,-33.13,60.3
10.670684500,41316,1101.19,-41.40,60.3
10.670764500,41339,1346.44,-48.17,60.3
10.670823200,41339,1586.33,-52.50,60.3
10.670878300,41339,1820.05,-53.96,60.3
10.670931800,41341,2047.25,-52.35,60.3
10.670985900,41329,2267.81,-47.57,60.3
10.671039400,41328,2481.33,-39.89,60.3
10.671093000,41327,2686.75,-29.81,60.3
10.671146300,41325,2882.29,-17.69,60.3
10.671199900,41292,3065.44,-3.42,60.3
10.671254600,41301,3232.72,13.63,60.3
10.671308900,41280,3379.34,35.23,60.3
10.687540000,41264,3499.37,64.33,60.3
10.687763400,41244,3585.87,104.04,60.3
10.706462600,41244,3630.97,156.46,60.3
10.706628600,41225,3626.31,222.30,60.3
10.726380300,41224,3563.77,300.97,60.3
10.726544100,41234,3436.31,391.03,60.3
10.746388500,41225,3238.90,490.61,60.3
10.746759200,41211,2969.20,597.34,60.3
10.766306000,41203,2627.39,707.62,60.3
10.766571900,41215,2215.64,816.51,60.3
10.793511200,41225,1738.04,918.85,60.3
10.793600400,41220,1201.03,1010.63,60.3
10.808060600,41198,613.37,1089.28,60.3
10.808169000,41201,-14.84,1153.45,60.3
10.827466100,41191,-673.38,1202.78,60.3
10.827551200,41170,-1352.70,1237.68,60.3
10.846397500,41183,-2044.34,1259.31,60.3
10.846867000,41180,-2741.08,1269.51,60.3
10.868620300,41173,-3436.51,1270.63,60.3
10.868669600,41170,-4124.66,1264.91,60.3
10.887404500,41152,-4800.12,1254.02,60.3
10.887456300,41148,-5458.45,1238.69,60.3
10.906603900,41150,-6096.44,1218.72,60.3
10.906817100,41175,-6711.75,1193.15,60.3
10.926216800,41162,-7301.95,1161.25,60.3
10.926772400,41164,-7863.85,1122.81,60.3
10.945726300,41169,-8393.54,1077.52,60.3
10.966454400,41175,-8886.82,1024.49,60.3
10.966487200,41178,-9339.25,962.33,60.3
10.987095200,41181,-9746.20,889.86,60.3
10.987720800,41179,-10103.11,807.14,60.3
11.008257700,41161,-10405.96,715.50,60.3
11.008299000,41151,-10652.11,616.74,60.3
11.025981100,41159,-10841.03,512.58,60.3
11.026320300,41162,-10974.35,405.15,60.3
11.045927900,41155,-11055.16,297.58,60.3
11.046206600,41162,-11087.30,193.29,60.3
11.609798500,41157,-11075.03,94.69,60.3
11.609849900,41169,-11022.71,2.71,60.3
11.609880400,41160,-10934.49,-82.63,60.3
11.609908700,41170,-10814.09,-161.50,60.3
11.609934900,41164,-10664.83,-234.19,60.3
11.609961400,41155,-10489.69,-301.06,60.3
11.609987700,41164,-10291.64,-362.32,60.3
11.610013200,41180,-10073.68,-417.82,60.3
11.610039500,41174,-9838.40,-467.40,60.3
11.610065300,41169,-9587.60,-511.16,60.3
11.610090400,41164,-9322.62,-549.76,60.3
11.610115700,41168,-9044.94,-584.34,60.3
11.610140700,41181,-8756.37,-615.80,60.3
11.610165900,41192,-8458.58,-644.00,60.3
11.610191100,41165,-8152.66,-668.25,60.3
11.610215400,41178,-7839.29,-688.25,60.3
11.610240000,41164,-7519.51,-704.27,60.3
11.610264700,41162,-7195.05,-716.69,60.3
11.610289400,41165,-6868.48,-725.89,60.3
11.610313800,41169,-6542.92,-732.27,60.3
11.610338400,41181,-6221.56,-736.20,60.3
11.610362900,41186,-5906.90,-737.54,60.3
11.610387600,41175,-5600.29,-735.58,60.3
11.610412800,41171,-5302.24,-729.82,60.3
11.610437600,41180,-5012.95,-720.75,60.3
11.610462000,41192,-4732.58,-709.32,60.3
11.610486900,41186,-4460.92,-696.22,60.3
11.610511400,41184,-4197.17,-681.74,60.3
11.610535900,41185,-3940.28,-666.11,60.3
11.610560300,41180,-3689.37,-649.41,60.3
11.610585200,41190,-3443.90,-631.41,60.3
11.610609800,41212,-3203.52,-611.71,60.3
11.610636200,41197,-2967.46,-589.81,60.3
11.610660600,41196,-2734.34,-565.49,60.3
11.610685500,41200,-2502.63,-539.41,60.3
11.610709500,41214,-2271.13,-512.74,60.3
11.610733900,41211,-2038.81,-486.47,60.3
11.610758200,41215,-1804.53,-461.38,60.3
11.610783100,41212,-1567.12,-438.04,60.3
11.610808200,41223,-1325.62,-416.24,60.3
11.610832400,41223,-1079.37,-395.16,60.3
11.610858100,41222,-827.88,-373.88,60.3
11.610882400,41217,-570.98,-351.73,60.3
11.610906800,41207,-309.11,-328.43,60.3
11.610931500,41220,-43.72,-304.44,60.3
11.610956500,41230,222.93,-280.94,60.3
11.610980600,41234,488.49,-258.75,60.3
11.611005700,41233,751.18,-237.74,60.3
11.611030000,41238,1009.93,-217.33,60.3
11.611054600,41230,1264.09,-197.25,60.3
11.611079000,41227,1513.12,-177.64,60.3
11.611103700,41219,1756.07,-158.75,60.3
11.611128500,41215,1991.19,-141.04,60.3
11.611153700,41224,2215.95,-125.32,60.3
11.611178300,41230,2427.32,-112.01,60.3
11.611203100,41240,2622.64,-100.55,60.3
11.626071400,41239,2800.28,-90.19,60.3
11.626533100,41230,2959.78,-80.80,60.3
11.645987400,41247,3101.54,-72.53,60.3
11.646783600,41233,3226.46,-65.47,60.3
11.665899900,41233,3335.72,-59.91,60.3
11.666345500,41248,3430.49,-56.77,60.3
11.685935200,41255,3512.00,-56.99,60.3
11.686294100,41241,3581.90,-60.52,60.3
11.706877100,41243,3642.18,-66.53,60.3
11.707318600,41224,3694.50,-74.26,60.3
11.726075100,41230,3739.55,-83.21,60.3
11.726601700,41217,3776.76,-92.76,60.3
11.746502100,41199,3804.29,-101.71,60.3
11.746535400,41174,3818.89,-107.86,60.3
11.766026800,41173,3815.46,-107.92,60.3
11.766372000,41155,3787.19,-98.09,60.3
11.786305800,41168,3726.27,-74.77,60.3
11.786760200,41142,3624.96,-35.33,60.2
11.808060000,41144,3476.41,21.57,59.7
11.808110700,41131,3275.04,95.67,59.0
11.884757900,41136,3016.68,184.77,58.0
11.884793600,41132,2698.99,285.34,56.8
11.884823100,41138,2321.79,393.53,55.2
11.884850900,41141,1887.36,505.28,53.5
11.884877400,41133,1400.47,616.15,51.5
11.884903400,41141,868.07,721.75,49.3
11.886412500,41131,298.74,818.44,46.9
11.886446500,41133,-297.99,903.62,44.4
11.905878900,41128,-912.17,975.54,41.7
11.906196200,41114,-1534.14,1033.26,38.9
11.925973300,41108,-2155.10,1076.78,36.0
11.925997100,41109,-2767.69,1106.76,33.1
11.949077200,41090,-3366.19,1123.94,30.2
11.949158600,41083,-3946.55,1128.82,27.2
11.967136800,41093,-4506.37,1121.66,24.3
11.967173900,41087,-5044.52,1103.09,21.4
11.986175400,41096,-5560.36,1074.63,18.6
11.986748400,41099,-6053.01,1038.31,15.9
12.006106200,41093,-6521.02,995.96,13.4
12.007076200,41104,-6962.27,948.79,11.0
12.026714400,41112,-7374.03,897.36,8.8
12.026748300,41108,-7752.95,841.89,6.8
12.619837400,41115,-8095.13,782.27,5.1
12.619861600,41113,-8396.51,718.86,3.6
12.619876100,41097,-8653.34,653.19,2.3
12.619889400,41107,-8862.87,587.07,1.3
12.619902600,41093,-9023.77,521.56,0.6
12.619916300,41106,-9136.29,457.04,0.1
12.619929500,41105,-9201.87,393.81,0.0
12.619942900,41081,-9222.85,332.21,0.0
12.619955500,41092,-9202.50,272.32,0.0
12.619967800,41074,-9145.24,214.02,0.0
12.619980200,41092,-9056.52,157.30,0.0
12.619992800,41083,-8942.22,102.42,0.0
12.620005100,41079,-8808.11,49.75,0.0
12.620018100,41089,-8659.47,-0.68,0.0
12.620031100,41062,-8501.12,-49.30,0.0
12.620043200,41096,-8337.37,-96.70,0.0
12.620055500,41092,-8171.85,-143.18,0.0
12.620068400,41097,-8006.85,-188.32,0.0
12.620081000,41086,-7843.16,-230.90,0.0
12.620093400,41087,-7680.52,-269.39,0.0
12.620105600,41087,-7518.38,-302.91,0.0
12.620117800,41092,-7356.19,-331.77,0.0
12.620130000,41097,-7193.34,-356.99,0.0
12.620142500,41082,-7029.05,-379.46,0.0
12.620154700,41073,-6862.67,-399.67,0.0
12.620166700,41081,-6694.21,-418.23,0.0
12.620178700,41086,-6524.49,-435.76,0.0
12.620190900,41088,-6354.64,-451.94,0.0
12.620203800,41071,-6185.63,-465.68,0.0
12.620215700,41077,-6018.33,-476.58,0.0
12.620227900,41081,-5853.84,-485.30,0.0
12.620240700,41076,-5693.35,-492.44,0.0
12.620253500,41083,-5537.84,-498.54,0.0
12.620265600,41081,-5387.94,-504.23,0.0
12.620277400,41085,-5243.82,-509.49,0.0
12.620289900,41078,-5105.21,-513.64,0.0
12.620302400,41088,-4971.53,-516.22,0.0
12.620315300,41106,-4841.88,-517.16,0.0
12.620327700,41101,-4714.64,-516.19,0.0
12.620339700,41075,-4587.43,-513.01,0.0
12.620351500,41095,-4457.87,-507.83,0.0
12.620364000,41082,-4324.40,-501.31,0.0
12.620376600,41091,-4186.34,-494.00,0.0
12.620389000,41100,-4043.56,-486.43,0.0
12.620401800,41086,-3896.13,-479.30,0.0
12.620414000,41075,-3744.29,-473.56,0.0
12.620426100,41097,-3588.79,-470.17,0.0
12.620438100,41096,-3430.89,-469.39,0.0
12.620450600,41080,-3271.80,-470.40,0.0
12.620463300,41093,-3112.55,-472.46,0.0
12.620476100,41087,-2954.24,-475.97,0.0
12.620488400,41099,-2797.98,-481.63,0.0
12.620500700,41117,-2644.43,-489.01,0.0
12.620512800,41106,-2493.34,-496.55,0.0
12.620524900,41108,-2343.42,-502.42,0.0
12.620537000,41125,-2192.77,-505.14,0.0
12.620549300,41119,-2039.20,-503.74,0.0
12.626963400,41093,-1880.44,-497.61,0.0
12.627146000,41114,-1714.91,-486.91,0.0
12.646083700,41126,-1542.13,-472.59,0.0
12.646143100,41116,-1362.26,-455.36,0.0
12.666309800,41122,-1175.51,-435.26,0.0
12.666607700,41124,-982.15,-412.22,0.0
12.685920500,41133,-782.60,-386.27,0.0
12.686104900,41131,-577.25,-357.16,0.0
12.705745700,41130,-366.38,-324.54,0.0
12.705943300,41142,-150.27,-288.93,0.0
12.726022600,41132,70.71,-251.74,0.0
12.726355900,41136,296.08,-214.58,0.0
12.747255600,41129,524.98,-178.71,0.0
12.747332400,41118,755.96,-144.70,0.0
12.769361600,41110,986.56,-112.17,0.0
12.769776400,41116,1213.15,-79.60,0.0
12.786959500,41072,1430.96,-44.36,0.0
12.787085400,41057,1633.86,-3.27,0.0
12.807527100,41040,1813.73,46.29,0.0
12.807582700,41053,1960.56,106.05,0.0
12.826630700,41038,2063.66,177.15,0.0
12.826679200,41023,2113.09,260.00,0.0
12.848223900,41023,2100.36,353.55,0.0
12.848313300,41033,2018.84,454.93,0.0
12.867981700,41026,1864.39,560.47,0.0
12.868459700,41025,1635.95,666.69,57.5
12.887115400,41008,1335.35,770.27,57.5
12.887195000,41023,966.77,867.49,57.5
12.907276200,41014,536.19,954.59,57.5
12.907760600,41007,51.16,1028.50,57.5
12.926167400,41012,-479.59,1087.23,57.5
12.926404400,40989,-1046.79,1130.05,57.5
12.946297700,41000,-1641.19,1157.21,57.5
12.946527300,40988,-2254.01,1169.62,57.5
12.965930800,40993,-2877.09,1168.73,57.5
12.966298100,40993,-3502.77,1156.26,57.5
12.986592800,40987,-4123.82,1134.09,57.5
12.986671500,40987,-4733.41,1104.53,57.5
13.006630200,40975,-5325.32,1070.14,57.5
13.006702200,40960,-5894.35,1032.54,57.5
13.026170400,40985,-6436.60,991.23,57.5
13.026343400,40992,-6949.18,944.20,57.5
13.046765700,40997,-7429.19,889.89,57.5
13.047303900,40985,-7873.05,827.79,57.5
13.466744200,40989,-8276.84,757.92,57.5
13.466760500,40994,-8636.94,680.53,57.5
13.466774600,40996,-8950.30,596.50,57.5
13.466787500,40987,-9214.45,507.40,57.5
13.466800000,40995,-9427.65,414.97,57.5
13.466812700,40992,-9589.11,320.86,57.5
13.466824800,40997,-9698.92,227.26,57.5
13.466836900,40983,-9758.00,136.70,57.5
13.466848800,41003,-9768.09,51.16,57.5
13.466861700,40992,-9731.65,-28.15,57.5
13.466873500,40997,-9651.57,-100.48,57.5
13.466885100,40994,-9531.06,-165.32,57.5
13.466897100,40970,-9373.76,-222.56,57.5
13.466909500,40993,-9184.12,-272.78,57.5
13.466921900,40981,-8967.38,-317.18,57.5
13.466933700,40985,-8729.05,-356.98,57.5
13.466945800,40982,-8474.57,-393.09,57.5
13.466957900,41007,-8208.91,-425.87,57.5
13.466970000,40997,-7936.13,-454.77,57.5
13.466982100,40998,-7658.91,-478.84,57.5
13.466993800,41004,-7378.82,-497.39,57.5
13.467005400,41008,-7096.65,-510.13,57.5
13.467017500,41000,-6812.62,-517.26,57.5
13.467029400,40993,-6526.69,-519.31,57.5
13.467041300,40996,-6239.12,-516.99,57.5
13.467052900,40997,-5950.80,-511.07,57.5
13.467064700,41005,-5663.05,-502.10,57.5
13.467076300,40987,-5377.33,-490.51,57.5
13.467088200,41000,-5095.14,-477.02,57.5
13.467101100,41005,-4818.12,-462.43,57.5
13.467114100,41008,-4547.62,-447.22,57.5
13.467126400,40995,-4284.50,-431.42,57.5
13.467138800,40985,-4029.31,-414.89,57.5
13.467150600,41011,-3782.84,-397.63,57.5
13.467162400,41001,-3546.10,-379.70,57.5
13.467174100,41005,-3319.69,-361.11,57.5
13.467185500,41009,-3103.69,-341.89,57.5
13.467197800,41008,-2897.70,-322.25,57.5
13.467209900,41021,-2700.89,-302.43,57.5
13.467221900,41030,-2511.85,-282.60,57.5
13.467234000,41010,-2328.52,-262.93,57.5
13.486136400,41004,-2148.60,-244.25,57.5
13.486299100,41028,-1970.40,-228.07,57.5
13.510487200,41011,-1792.99,-215.68,57.5
13.510925300,41033,-1615.82,-207.77,57.5
13.526233000,41034,-1438.28,-204.64,57.5
13.526828300,41015,-1259.57,-206.32,57.5
13.546237500,41017,-1079.02,-212.89,57.5
13.546400300,41026,-896.64,-224.77,57.5
13.566156600,41044,-713.10,-241.93,57.5
13.566604700,41026,-529.00,-263.26,57.5
13.586306900,41023,-344.63,-287.40,57.5
13.587321000,41051,-160.32,-313.99,57.5
13.606275600,41034,23.57,-343.05,57.5
13.606599000,41033,206.87,-373.89,57.5
13.625998700,41031,389.40,-405.35,57.5
13.626162700,41048,570.57,-436.52,57.5
13.647585200,41039,749.60,-466.53,57.5
13.647646000,41050,925.91,-494.26,57.5
13.665711200,41047,1099.18,-518.51,57.5
13.665837200,41058,1269.42,-538.31,57.5
13.685731700,41048,1436.89,-553.08,57.5
13.685877900,41062,1602.05,-563.10,57.5
13.705811200,41055,1765.41,-569.28,57.5
13.707706100,41061,1927.45,-572.36,57.5
13.726561000,41075,2088.63,-572.61,57.5
13.726766400,41079,2249.58,-569.65,57.5
13.747192900,41083,2411.45,-562.73,57.5
13.747513000,41070,2575.79,-551.32,57.5
13.773369900,41090,2744.09,-535.04,57.5
13.773386800,41094,2917.49,-513.42,57.5
13.786733500,41075,3096.89,-486.60,57.5
13.786933300,41082,3282.73,-456.39,57.5
13.806987000,41118,3474.71,-425.62,57.5
13.808267500,41095,3672.31,-395.86,57.5
13.905946800,41093,3875.26,-366.74,57.5
13.905985900,41070,4083.01,-337.50,57.5
13.906015600,41068,4293.63,-307.96,57.5
13.906042200,41054,4503.22,-277.95,57.5
13.906067700,41034,4705.84,-246.18,57.5
13.906093400,41020,4893.66,-209.86,57.5
13.906119500,41015,5057.20,-165.18,57.5
13.906145500,41000,5185.88,-108.41,57.5
13.907386200,40998,5268.97,-36.84,57.5
13.907572500,41004,5296.43,50.63,57.5
13.925862900,40995,5260.01,153.44,57.5
13.926112000,41008,5154.04,269.27,57.5
13.945943800,40996,4975.89,394.18,57.5
13.946094400,41016,4726.11,523.54,57.5
13.966003500,40997,4408.31,652.72,57.5
13.966042100,40991,4028.60,777.19,57.5
13.986753100,40998,3594.68,892.81,57.5
13.987015800,40999,3115.09,996.41,57.4
14.006182900,41002,2599.06,1085.74,57.4
14.006558900,40981,2056.28,1159.06,57.4
14.025945900,40987,1496.33,1214.94,57.3
14.026386200,40977,927.91,1252.97,57.3
14.741994800,40973,358.54,1274.35,57.3
14.742040400,40980,-205.54,1281.32,57.2
14.742075600,40975,-759.12,1276.60,57.2
14.742108300,40967,-1297.75,1262.76,57.1
14.742141900,40950,-1817.84,1241.53,57.0
14.742174500,40965,-2316.94,1213.57,57.0
14.742207300,40968,-2793.67,1179.10,56.9
14.742240500,40960,-3247.07,1138.30,56.9
14.742272300,40988,-3675.97,1091.10,56.8
14.742305100,40975,-4078.60,1037.30,56.7
14.742466000,40987,-4452.37,976.93,56.7
14.742521900,40999,-4793.91,909.96,56.6
14.742557000,40998,-5099.27,836.39,56.6
14.742588400,40984,-5364.14,756.85,56.5
14.742619800,41001,-5584.54,672.49,56.5
14.742652600,40990,-5757.50,584.80,56.4
14.742684300,40987,-5881.24,495.50,56.4
14.742716200,40988,-5955.41,406.40,56.3
14.742750000,40971,-5981.32,319.18,56.3
14.742781600,40977,-5961.96,235.11,56.3
14.742812900,40966,-5902.01,154.69,56.2
14.742868200,40974,-5807.42,77.77,56.2
14.742915500,40967,-5684.89,3.86,56.2
14.742948600,40963,-5541.34,-67.56,56.2
14.742981300,40981,-5383.47,-136.49,56.2
14.743013300,40998,-5217.19,-202.21,56.2
14.743045900,40989,-5046.67,-263.53,56.2
14.743078200,40990,-4874.06,-319.58,56.2
14.743110100,40996,-4699.96,-370.35,56.2
14.743142000,40995,-4524.12,-416.41,56.2
14.743174200,40996,-4345.74,-458.39,56.2
14.743206000,40990,-4163.81,-496.74,56.2
14.743239200,40992,-3977.55,-531.75,56.2
14.743270700,40983,-3786.68,-563.72,56.2
14.743302200,40999,-3591.63,-593.06,56.2
14.743333500,40997,-3393.25,-619.59,56.2
14.743383400,40998,-3192.40,-642.19,56.2
14.743423300,41003,-2989.77,-659.25,56.2
14.743454800,40992,-2785.87,-669.59,56.2
14.743484800,40988,-2581.31,-673.16,56.2
14.743515500,41005,-2377.12,-670.61,56.2
14.743545500,40997,-2174.57,-662.43,56.2
14.743576400,41007,-1974.80,-648.75,56.2
14.743607000,41006,-1778.57,-629.78,56.2
14.743637400,41003,-1586.23,-606.45,56.2
14.743667100,41019,-1397.81,-580.44,56.2
14.743697200,41012,-1212.99,-553.22,56.2
14.743726800,41011,-1031.13,-525.57,56.2
14.743757000,41007,-851.49,-498.12,56.2
14.743787400,40992,-673.80,-471.97,56.2
14.743816900,41017,-498.55,-448.68,56.2
14.743846700,41012,-326.87,-429.89,56.2
14.743903000,41016,-159.79,-416.74,56.2
14.743938000,41022,2.09,-409.67,56.2
14.743968700,41031,158.76,-408.25,56.2
14.743998200,41021,310.85,-410.92,56.2
14.744028900,41022,459.42,-415.52,56.2
14.744060200,41027,605.50,-420.01,56.2
14.744091100,41023,749.82,-422.92,56.2
14.744123200,41040,892.86,-423.46,56.2
14.744153000,41041,1035.13,-421.23,56.2
14.744182300,41028,1177.41,-415.84,56.2
14.744213200,41051,1320.58,-407.09,56.2
14.744243300,41049,1465.50,-395.14,56.2
14.744273800,41052,1613.15,-380.46,56.2
14.744303200,41050,1764.70,-363.84,56.2
14.744332900,41065,1921.27,-346.28,56.2
14.744374000,41057,2083.82,-328.11,56.2
14.744417000,41065,2253.18,-309.00,56.2
14.746383400,41063,2429.90,-288.73,56.2
14.746428800,41042,2614.00,-267.67,56.2
14.767853800,41072,2804.62,-246.82,56.2
14.768673000,41060,3000.02,-227.39,56.2
14.786509400,41062,3198.09,-210.14,56.2
14.786557100,41068,3396.66,-195.23,56.2
14.806871100,41071,3593.55,-182.79,56.2
14.806929900,41084,3786.87,-173.41,56.2
14.827783600,41059,3975.24,-167.93,56.2
14.827878800,41071,4157.55,-166.72,56.2
14.846940600,41065,4332.46,-169.87,56.2
14.846993200,41073,4498.26,-177.51,56.2
14.866690300,41066,4653.20,-189.61,56.2
14.866923700,41089,4795.66,-205.37,56.2
14.887646200,41075,4924.59,-223.09,56.2
14.887704200,41093,5039.71,-240.76,56.2
14.908856900,41086,5141.53,-257.12,56.2
14.908920500,41089,5231.21,-271.48,56.2
14.926964100,41077,5310.16,-282.59,56.2
14.927486200,41062,5379.45,-288.19,56.2
14.947574800,41063,5439.07,-284.84,56.2
14.947654700,41037,5487.50,-268.40,56.2
14.967071800,41019,5521.43,-235.19,56.2
14.967133500,41008,5535.58,-183.28,56.2
14.986852700,41012,5522.84,-112.94,56.2
14.986927800,40994,5475.15,-25.77,56.2
15.006140500,41006,5384.63,76.56,56.2
15.006716500,41004,5244.56,192.11,56.2
15.027267100,41007,5050.29,317.82,56.2
15.027334400,40987,4799.69,449.24,56.2
15.498175100,41004,4493.00,580.64,56.2
15.498231000,41004,4132.49,705.96,56.2
15.500072600,41000,3722.48,820.31,56.2
15.500109400,41002,3269.22,920.41,56.2
15.500146200,41004,2780.35,1004.50,56.2
15.500180200,40993,2264.42,1072.14,56.2
15.500215000,40995,1730.28,1123.88,56.2
15.500249500,40967,1186.36,1160.55,56.2
15.500283000,40976,639.92,1182.66,56.2
15.500316400,40993,96.68,1190.54,56.1
15.500350700,40972,-438.62,1185.05,56.1
15.500384400,40975,-961.69,1167.75,56.1
15.500417700,40971,-1468.78,1140.27,56.1
15.500451400,40976,-1956.86,1104.14,56.1
15.500529700,40982,-2423.39,1060.68,56.0
15.500574100,40980,-2865.89,1010.61,56.0
15.500609100,40990,-3281.73,953.94,56.0
15.500643000,41004,-3667.95,890.67,56.0
15.500676600,40982,-4021.12,821.49,56.0
15.500710600,40980,-4337.74,747.71,55.9
15.500742200,40974,-4615.20,670.66,55.9
15.500770800,40968,-4852.40,591.41,55.9
15.500799300,40993,-5049.83,510.44,55.9
15.500827700,40964,-5208.98,427.96,55.9
15.500856900,40967,-5331.94,344.68,55.8
15.500885800,40989,-5421.46,261.56,55.8
15.500914000,40966,-5480.66,179.85,55.8
15.500943200,40969,-5512.61,101.08,55.8
15.500971600,40977,-5520.41,26.63,55.8
15.501000400,40976,-5507.18,-42.53,55.8
15.501029200,40974,-5475.70,-105.87,55.8
15.501059000,40985,-5428.27,-163.10,55.8
15.501087400,40974,-5366.67,-213.80,55.8
15.501115400,40982,-5292.22,-257.42,55.8
15.501142400,40967,-5206.01,-293.91,55.8
15.501170400,40973,-5109.23,-324.10,55.8
15.501197500,40982,-5003.33,-349.29,55.8
15.501225000,40987,-4889.71,-370.30,55.8
15.501253700,40995,-4769.22,-387.06,55.8
15.501307600,40992,-4641.84,-399.11,55.8
15.501350100,40982,-4506.89,-406.28,55.8
15.501380200,40995,-4363.54,-409.01,55.8
15.501409700,41003,-4211.17,-408.01,55.8
15.501439800,41000,-4049.15,-403.51,55.8
15.501468800,41005,-3876.68,-395.26,55.8
15.501498100,40988,-3692.96,-383.15,55.8
15.506783400,40988,-3497.80,-367.73,55.8
15.507272800,40992,-3292.09,-350.03,55.8
15.527120200,40985,-3077.78,-330.59,55.8
15.527196000,40984,-2857.64,-309.27,55.8
15.548851100,40966,-2635.07,-286.15,55.8
15.548909400,40979,-2414.19,-262.26,55.8
15.566471600,40983,-2199.56,-238.89,55.8
15.566701300,40992,-1995.44,-216.48,55.8
15.586212800,40986,-1804.98,-194.53,55.8
15.586921600,40998,-1629.97,-172.68,55.8
15.606943600,40988,-1470.91,-151.22,55.8
15.607048600,40978,-1327.40,-131.03,55.8
15.630522200,40994,-1198.70,-113.67,55.8
15.630616000,40992,-1083.99,-101.00,55.8
15.646045800,40994,-982.19,-94.03,55.8
15.646279700,41000,-891.72,-92.94,55.8
15.665876300,41010,-810.55,-97.61,55.8
15.666111900,41008,-736.07,-107.36,55.8
15.686227400,41004,-665.19,-120.69,55.8
15.686491800,40984,-594.87,-135.78,55.8
15.705870200,40994,-522.98,-151.63,55.8
15.706118900,40997,-448.75,-168.32,55.8
15.725776000,41005,-372.33,-185.68,55.8
15.725906200,41006,-294.13,-202.56,55.8
15.745930400,41021,-214.23,-217.35,55.8
15.746282000,41016,-132.11,-228.38,55.8
15.766137000,41010,-46.64,-234.29,55.8
15.766297600,41027,43.54,-234.66,55.8
15.785619300,41032,139.76,-230.09,55.8
15.785840000,41054,243.68,-221.68,55.8
15.807754300,41060,357.77,-210.30,55.8
15.807816900,41057,485.49,-196.46,55.8
15.901810000,41072,630.86,-180.83,55.8
15.901865600,41067,797.89,-164.62,55.8
15.902121200,41082,990.09,-149.34,55.8
15.902163900,41062,1210.09,-136.49,55.8
15.902204600,41067,1459.23,-127.32,55.8
15.902243900,41059,1736.95,-123.09,55.8
15.902284400,41060,2040.59,-125.32,55.8
15.906843700,41047,2365.58,-135.15,55.8
15.907093400,41043,2705.64,-152.30,55.8
15.929507400,41034,3052.94,-174.93,55.8
15.929603000,41033,3398.49,-200.49,55.8
15.946833400,41002,3732.50,-225.80,55.8
15.947111000,40989,4044.51,-247.05,55.8
15.968188000,40978,4323.17,-260.31,55.8
15.968254500,40950,4556.44,-261.91,55.8
15.989487700,40948,4731.93,-249.00,55.8
15.989911400,40942,4837.57,-220.17,55.8
16.007228000,40923,4862.51,-175.50,55.8
16.007535000,40918,4797.84,-116.27,55.8
16.027455900,40926,4637.05,-45.01,55.8
16.027511000,40915,4376.56,34.84,55.8
16.046923300,40915,4016.15,119.57,55.8
16.046978200,40908,3558.95,205.52,55.8
16.613370100,40911,3011.01,289.36,55.8
16.613389900,40900,2380.90,368.29,55.8
16.613404900,40898,1679.08,440.10,55.8
16.613418000,40888,917.27,503.34,55.8
16.613431100,40893,107.74,557.32,55.8
16.613444500,40898,-737.03,602.27,55.8
16.613457700,40869,-1604.46,639.64,55.8
16.613475100,40882,-2482.37,671.49,55.8
16.613489800,40868,-3359.60,699.40,55.8
16.613502700,40859,-4226.29,723.91,55.8
16.613515400,40867,-5074.02,744.20,55.8
16.613546700,40868,-5895.69,758.95,55.8
16.613599400,40856,-6685.15,767.38,55.8
16.613617400,40874,-7436.89,769.13,55.8
16.613631900,40860,-8145.96,763.72,55.8
16.613646200,40876,-8807.80,750.66,55.8
16.613659400,40867,-9418.17,729.40,55.8
16.613672700,40855,-9973.24,699.54,55.8
16.613686400,40871,-10470.02,660.84,55.8
16.613699400,40880,-10906.45,613.46,55.9
16.613712400,40872,-11280.99,558.41,55.9
16.613726200,40856,-11592.42,497.38,55.9
16.613739600,40880,-11840.36,431.81,55.9
16.613752800,40883,-12025.38,363.49,55.9
16.613765900,40849,-12148.64,295.47,55.9
16.613780300,40859,-12212.13,230.49,55.9
16.613793100,40853,-12219.33,169.45,55.9
16.613805800,40863,-12175.13,112.10,55.9
16.613818300,40863,-12085.14,57.91,55.9
16.613831300,40856,-11955.01,6.42,55.9
16.613845600,40861,-11790.14,-42.55,55.9
16.613859900,40854,-11595.76,-88.72,56.0
16.613873400,40866,-11376.80,-131.56,56.0
16.613886500,40867,-11137.72,-170.75,56.0
16.613899700,40874,-10882.18,-206.19,56.0
16.613912700,40875,-10612.78,-237.54,56.0
16.613926100,40876,-10331.16,-264.47,56.0
16.613939400,40882,-10038.16,-287.07,56.0
16.613953500,40894,-9734.04,-305.70,56.0
16.613966900,40868,-9418.56,-320.77,56.0
16.613979800,40873,-9091.52,-333.07,56.0
16.613993000,40876,-8753.42,-344.03,56.0
16.614006400,40872,-8405.73,-354.95,56.0
16.614019000,40883,-8050.55,-366.24,56.0
16.614031700,40872,-7690.21,-377.37,56.0
16.614044200,40876,-7327.15,-387.88,56.0
16.614057400,40887,-6963.81,-397.92,56.0
16.614070500,40885,-6602.38,-407.39,56.0
16.614083100,40911,-6244.43,-415.48,56.0
16.614095700,40920,-5890.28,-421.14,56.0
16.614108300,40904,-5538.75,-423.23,56.0
16.614121000,40866,-5187.78,-420.75,56.0
16.614133500,40834,-4836.49,-413.87,56.0
16.614146100,40835,-4487.24,-404.19,56.0
16.614158300,40815,-4146.27,-393.61,56.0
16.614170900,40820,-3822.79,-383.10,56.0
16.626034700,40798,-3527.50,-372.51,56.0
16.626485600,40775,-3271.56,-361.43,56.0
16.646158100,40759,-3066.16,-350.23,56.0
16.647119400,40735,-2922.47,-340.06,56.0
16.665942800,40725,-2851.44,-332.31,56.0
16.666045300,40738,-2863.17,-328.11,56.0
16.685906200,40719,-2965.76,-327.69,56.0
16.686001100,40722,-3164.19,-329.94,56.0
16.706777400,40713,-3459.96,-333.34,56.0
16.707032600,40709,-3851.16,-337.21,56.0
16.726567000,40707,-4332.77,-341.62,56.0
16.726598100,40718,-4897.01,-346.79,56.0
16.745920900,40708,-5533.51,-353.05,56.0
16.746150300,40701,-6229.71,-360.95,56.0
16.767044500,40710,-6971.63,-370.90,56.0
16.767195700,40693,-7744.69,-382.85,56.0
16.785638900,40704,-8534.32,-396.53,56.0
16.785835400,40713,-9326.36,-411.71,56.0
16.806818700,40707,-10107.07,-427.89,56.0
16.806842500,40704,-10863.22,-444.26,56.0
16.825748900,40695,-11582.62,-460.37,56.0
16.826061800,40698,-12254.83,-476.37,56.0
16.845988500,40693,-12871.50,-492.43,56.0
16.846407600,40718,-13426.27,-507.83,56.0
16.867067600,40692,-13914.29,-521.01,56.0
16.867285400,40692,-14332.01,-530.87,56.0
16.885621000,40699,-14677.49,-537.72,56.0
16.885834800,40702,-14950.47,-542.54,56.0
16.905903100,40715,-15151.84,-545.61,56.0
16.906102700,40743,-15282.73,-546.00,56.0
16.926208800,40719,-15343.81,-542.00,56.0
16.926231600,40701,-15335.32,-532.61,56.0
16.945804100,40701,-15258.35,-518.53,56.0
16.945920100,40721,-15115.93,-501.55,56.0
16.965850200,40727,-14912.56,-482.81,56.0
16.966424900,40744,-14653.04,-462.07,56.0
16.985710900,40717,-14341.65,-438.07,56.0
16.985951000,40698,-13982.52,-409.45,56.0
17.007750000,40669,-13581.04,-375.56,56.0
17.007825500,40664,-13145.20,-336.08,56.0
17.026182100,40651,-12685.93,-289.55,56.0
17.026212200,40637,-12216.47,-233.09,56.0
17.046112500,40650,-11751.19,-163.87,56.0
17.046291700,40637,-11304.33,-80.33,56.0
17.664140800,40633,-10888.71,17.36,56.0
17.664181600,40643,-10515.03,127.39,56.0
17.664211500,40631,-10191.35,246.80,56.0
17.664237600,40627,-9922.98,371.89,56.0
17.664268300,40632,-9712.56,497.93,56.0
17.664295800,40617,-9560.50,619.67,56.0
17.664322800,40609,-9465.36,732.39,56.1
17.664349900,40619,-9424.40,832.41,56.1
17.664376200,40634,-9433.78,917.60,56.2
17.664402200,40610,-9488.19,988.01,56.3
17.664428000,40602,-9581.09,1045.15,56.4
17.664454100,40593,-9705.65,1090.10,56.5
17.664481400,40580,-9855.79,1122.67,56.6
17.664516700,40579,-10026.65,1142.18,56.8
17.664571400,40599,-10214.43,1148.97,56.9
17.664622700,40565,-10415.77,1145.08,57.1
17.664661600,40587,-10627.32,1133.27,57.3
17.664703800,40565,-10845.80,1115.82,57.5
17.664731000,40575,-11068.09,1094.51,57.6
17.664759300,40568,-11291.16,1070.79,57.8
17.664786400,40577,-11512.00,1045.09,58.0
17.664812300,40578,-11727.37,1016.41,58.2
17.664837400,40583,-11933.57,982.89,58.4
17.664863700,40565,-12126.46,942.54,58.5
17.664889900,40580,-12301.85,893.30,58.7
17.664915200,40563,-12455.99,833.32,58.8
17.664940500,40569,-12585.81,761.88,59.0
17.664965900,40564,-12689.08,679.69,59.1
17.664991300,40575,-12764.38,588.63,59.2
17.665017000,40565,-12810.84,491.21,59.4
17.665043800,40575,-12827.93,390.02,59.4
17.665070900,40551,-12815.44,287.53,59.5
17.665098200,40563,-12773.82,185.87,59.6
17.665123600,40564,-12704.31,86.74,59.6
17.665149200,40570,-12608.66,-8.12,59.7
17.665192000,40583,-12488.51,-96.73,59.7
17.665242800,40560,-12344.95,-177.41,59.7
17.665293500,40560,-12178.83,-249.36,59.7
17.665343800,40581,-11991.22,-312.45,59.7
17.665417100,40552,-11783.57,-366.46,59.7
17.665474500,40565,-11557.60,-411.40,59.7
17.665526600,40567,-11315.41,-448.09,59.7
17.665578400,40569,-11059.30,-477.91,59.7
17.665629700,40570,-10791.44,-502.10,59.7
17.665680400,40575,-10513.58,-521.67,59.7
17.665730400,40546,-10227.23,-537.65,59.7
17.665780100,40571,-9934.04,-551.63,59.7
17.665829900,40558,-9636.12,-565.47,59.7
17.665880100,40565,-9335.74,-580.64,59.7
17.665929900,40558,-9035.09,-597.67,59.7
17.665979800,40576,-8736.15,-615.93,59.7
17.666030400,40577,-8440.35,-633.61,59.7
17.666058500,40566,-8148.33,-648.51,59.7
17.666086400,40562,-7860.08,-659.38,59.7
17.666112600,40570,-7575.60,-666.74,59.7
17.666137400,40559,-7295.19,-672.11,59.7
17.666162000,40573,-7019.38,-676.71,59.7
17.666187300,40560,-6748.79,-680.81,59.7
17.666212100,40557,-6484.13,-684.29,59.7
17.666819700,40583,-6226.17,-687.38,59.7
17.666852100,40575,-5975.49,-690.28,59.7
17.686328700,40572,-5731.92,-692.55,59.7
17.686357900,40555,-5494.79,-693.48,59.7
17.705956900,40573,-5263.65,-693.13,59.7
17.705982500,40586,-5038.45,-691.64,59.7
17.725958800,40581,-4818.90,-687.86,59.7
17.726053400,40581,-4604.03,-679.76,59.7
17.745960600,40574,-4392.45,-666.12,59.7
17.747311700,40587,-4182.85,-647.20,59.7
17.765863900,40577,-3974.22,-624.20,59.7
17.766649600,40588,-3765.80,-598.36,59.7
17.785915400,40600,-3556.97,-570.10,59.7
17.786093600,40583,-3346.95,-539.10,59.7
17.805873100,40593,-3134.87,-505.35,59.7
17.806260400,40600,-2920.03,-469.88,59.7
17.896990600,40603,-2701.91,-434.08,59.7
17.897025400,40607,-2479.87,-399.05,59.7
17.897053000,40597,-2253.17,-365.73,59.7
17.897078600,40597,-2021.29,-335.44,59.7
17.897104200,40607,-1784.36,-309.52,59.7
17.897129900,40599,-1543.10,-288.59,59.7
17.897154500,40612,-1298.62,-272.54,59.7
17.897180200,40603,-1052.19,-261.23,59.7
17.907125000,40610,-805.12,-254.73,59.7
17.907341200,40623,-558.70,-252.43,59.7
17.926139000,40616,-313.95,-252.42,59.7
17.926678400,40607,-71.48,-252.50,59.7
17.945916300,40610,168.05,-251.92,59.7
17.946785500,40610,403.54,-251.33,59.7
17.965960900,40618,633.44,-251.62,59.7
17.966404600,40622,856.16,-253.49,59.7
17.986089100,40629,1070.56,-257.31,59.7
17.986247400,40624,1276.11,-262.65,59.7
18.006840200,40622,1472.87,-268.61,59.7
18.007159300,40635,1661.12,-274.68,59.7
18.025785200,40639,1841.30,-280.40,59.7
18.025836800,40648,2014.28,-285.13,59.7
18.552991400,40639,2181.53,-288.47,59.7
18.553030200,40640,2344.80,-290.56,59.7
18.553058100,40632,2505.56,-292.00,59.7
18.553085000,40642,2664.57,-293.70,59.7
18.553111000,40633,2821.74,-295.62,59.7
18.553136800,40633,2976.31,-295.66,59.7
18.553163200,40603,3126.74,-290.65,59.7
18.553189100,40606,3270.23,-277.67,59.7
18.553214300,40582,3402.35,-254.07,59.7
18.553239200,40569,3516.98,-217.44,59.7
18.553265500,40590,3606.68,-166.10,59.7
18.553291600,40572,3663.61,-99.37,59.7
18.553317300,40589,3680.84,-17.96,59.7
18.553343100,40603,3653.36,75.59,59.7
18.553368600,40599,3578.89,177.46,59.7
18.553393600,40596,3458.22,283.48,59.7
18.553418900,40584,3294.60,389.49,59.7
18.553443700,40594,3092.69,491.12,59.7
18.553474400,40596,2857.88,584.25,59.7
18.553500900,40583,2596.03,665.63,59.6
18.553530200,40589,2313.24,732.93,59.6
18.553556100,40575,2015.31,784.81,59.5
18.553581900,40571,1707.36,821.10,59.4
18.553607700,40566,1393.47,843.01,59.3
18.553633500,40577,1076.61,852.94,59.2
18.553661000,40584,759.10,854.00,59.1
18.553687800,40561,443.24,849.46,59.0
18.553716800,40565,131.32,841.93,58.8
18.553742800,40563,-174.83,832.68,58.7
18.553769000,40554,-474.04,822.00,58.5
18.553795100,40574,-765.60,809.74,58.3
18.553821800,40571,-1048.80,795.65,58.1
18.553848300,40562,-1322.51,779.49,58.0
18.553874600,40560,-1585.21,760.87,57.8
18.553900900,40573,-1835.38,739.30,57.6
18.553926600,40573,-2071.55,714.52,57.4
18.553954200,40563,-2292.05,686.61,57.2
18.553982100,40557,-2495.20,655.59,57.1
18.554008100,40569,-2679.78,621.09,56.9
18.554033800,40565,-2845.14,583.15,56.7
18.554059500,40561,-2990.97,542.73,56.6
18.554085500,40554,-3117.26,501.10,56.4
18.554110800,40573,-3224.43,459.21,56.3
18.554137600,40566,-3313.15,417.98,56.2
18.554163700,40565,-3383.96,378.65,56.1
18.554190600,40553,-3437.30,342.09,56.0
18.554216200,40563,-3473.93,308.18,56.0
18.554263100,40555,-3495.07,276.12,55.9
18.554291600,40558,-3502.31,245.20,55.9
18.554317600,40552,-3497.44,214.81,55.9
18.554342600,40567,-3482.37,184.21,55.9
18.566058100,40569,-3458.74,152.91,55.9
18.566719900,40562,-3427.60,120.91,55.9
18.585771800,40573,-3389.28,88.13,55.9
18.585861000,40571,-3343.64,54.29,55.9
18.606418000,40564,-3290.20,19.69,55.9
18.606440300,40543,-3228.59,-14.79,55.9
18.627761200,40558,-3159.18,-49.02,55.9
18.628261900,40571,-3083.32,-83.47,55.9
18.645840700,40564,-3002.63,-117.89,55.9
18.646296400,40569,-2918.22,-151.30,55.9
18.666612100,40580,-2830.59,-182.77,55.9
18.666653000,40570,-2739.66,-211.42,55.9
18.688174700,40579,-2644.78,-236.40,55.9
18.688219900,40587,-2544.99,-257.38,55.9
18.706224500,40577,-2439.12,-274.41,55.9
18.706268400,40580,-2325.90,-287.69,55.9
18.725911500,40570,-2204.39,-297.61,55.9
18.726059200,40568,-2074.46,-304.89,55.9
18.746159000,40587,-1936.89,-310.19,55.9
18.746489600,40580,-1792.97,-313.49,55.9
18.766036200,40588,-1643.93,-314.09,55.9
18.766056500,40594,-1490.63,-311.53,55.9
18.785676600,40574,-1333.56,-306.11,55.9
18.785782800,40583,-1173.20,-298.90,55.9
18.806783300,40608,-1010.30,-291.30,55.9
18.807304500,40590,-845.51,-284.50,55.9
18.826000600,40593,-679.00,-279.19,55.9
18.826301700,40580,-510.83,-275.89,55.9
18.846322300,40595,-341.53,-275.16,55.9
18.846755700,40602,-172.11,-277.38,55.9
18.865846000,40608,-3.51,-281.76,55.9
18.867675600,40615,163.97,-286.35,55.9
18.886022200,40609,330.84,-289.53,55.9
18.886312200,40592,498.02,-290.84,55.9
18.907225800,40601,666.01,-290.63,55.9
18.907254600,40609,834.45,-289.54,55.9
18.929511600,40610,1002.38,-288.00,55.9
18.929556200,40616,1168.86,-286.04,55.9
18.945718400,40616,1333.27,-283.49,55.9
18.945904300,40621,1495.35,-280.26,55.9
18.965708500,40604,1655.07,-276.42,55.9
18.965953200,40614,1812.23,-272.53,55.9
18.986102900,40616,1966.19,-269.19,55.9
18.986468900,40625,2116.00,-266.51,55.9
19.005810500,40607,2260.85,-264.43,55.9
19.005847900,40623,2400.00,-263.35,55.9
19.026145900,40630,2532.72,-263.63,55.9
19.026416900,40632,2658.63,-264.88,55.9
19.569423500,40633,2778.01,-266.24,55.9
19.571555100,40634,2891.71,-266.87,55.9
19.572945900,40632,3000.85,-266.18,55.9
19.572993100,40635,3106.51,-263.88,55.9
19.573032400,40612,3209.39,-260.46,55.9
19.573073900,40609,3309.29,-257.20,55.9
19.573112800,40610,3404.65,-254.80,55.9
19.573151000,40600,3492.51,-251.79,55.9
19.573188200,40599,3569.05,-244.41,55.9
19.573226300,40575,3629.83,-227.80,55.9
19.573264700,40581,3669.85,-197.45,55.9
19.573302300,40560,3683.65,-149.85,55.9
19.573339600,40554,3665.51,-82.95,55.9
19.573377700,40550,3609.65,3.30,55.9
19.573415600,40550,3510.68,107.05,55.9
19.573452600,40541,3364.16,225.26,55.9
19.573489600,40552,3167.13,353.97,55.9
19.573534100,40541,2918.45,488.57,55.9
19.573573200,40541,2618.98,624.26,55.9
19.573611900,40533,2271.31,756.34,56.0
19.573651200,40533,1879.36,880.61,56.0
19.573686500,40535,1448.07,994.32,56.1
19.573720100,40515,983.11,1096.17,56.2
19.573754800,40502,490.42,1185.00,56.3
19.573790300,40520,-24.49,1259.57,56.4
19.573824700,40511,-556.57,1319.41,56.5
19.573860700,40507,-1100.82,1365.08,56.6
19.573895300,40487,-1652.19,1397.32,56.8
19.573928900,40484,-2206.14,1416.69,56.9
19.573963400,40485,-2759.10,1423.63,57.1
19.573997500,40482,-3308.35,1418.55,57.2
19.574031700,40479,-3851.59,1402.18,57.4
19.574065800,40473,-4386.65,1375.62,57.6
19.574116400,40473,-4911.37,1339.44,57.7
19.574153800,40459,-5423.72,1293.25,57.9
19.574187800,40467,-5921.87,1236.02,58.1
19.574221000,40468,-6404.19,1166.98,58.2
19.574255700,40478,-6868.84,1086.49,58.4
19.574289300,40474,-7313.36,996.62,58.5
19.574323200,40479,-7734.51,900.80,58.6
19.574357000,40468,-8128.52,802.31,58.8
19.574390700,40474,-8491.59,703.36,58.9
19.574425200,40458,-8820.37,605.20,59.0
19.574459500,40465,-9112.41,508.69,59.0
19.574493300,40478,-9366.21,414.74,59.1
19.574528100,40461,-9580.97,324.68,59.2
19.574556700,40467,-9756.24,239.87,59.2
19.574582400,40453,-9892.20,160.89,59.2
19.574607500,40459,-9989.89,87.56,59.2
19.574631800,40456,-10051.21,19.32,59.2
19.574656600,40464,-10078.70,-44.58,59.2
19.574681500,40460,-10075.05,-104.79,59.2
19.574705600,40471,-10042.75,-161.61,59.2
19.586125100,40478,-9983.82,-214.74,59.2
19.586167800,40461,-9899.58,-263.23,59.2
19.606974400,40459,-9790.99,-306.08,59.2
19.607649900,40460,-9659.27,-343.14,59.2
19.629569200,40457,-9506.32,-375.10,59.2
19.629649800,40457,-9334.60,-403.10,59.2
19.652447200,40461,-9146.89,-428.53,59.2
19.652570200,40471,-8945.99,-452.61,59.2
19.667405100,40475,-8734.23,-475.81,59.2
19.668347400,40468,-8513.11,-497.87,59.2
19.685968900,40466,-8283.45,-518.56,59.2
19.687372300,40481,-8045.79,-538.07,59.2
19.706268300,40458,-7800.64,-556.74,59.2
19.706758200,40461,-7548.65,-575.06,59.2
19.726601300,40451,-7291.09,-594.01,59.2
19.726649500,40482,-7030.00,-614.62,59.2
19.746207900,40468,-6767.54,-637.14,59.2
19.746589800,40497,-6505.19,-660.71,59.2
19.766340500,40480,-6243.24,-683.40,59.2
19.766381300,40492,-5980.94,-702.98,59.2
19.786268900,40483,-5716.89,-717.83,59.2
19.786391100,40505,-5449.54,-727.14,59.2
19.808881100,40487,-5177.34,-730.57,59.2
19.809104800,40507,-4898.81,-728.30,59.2
19.885667500,40502,-4612.67,-720.84,59.2
19.885702000,40496,-4317.91,-708.42,59.2
19.885728300,40494,-4014.07,-691.50,59.2
19.885752400,40495,-3701.63,-671.68,59.2
19.885777500,40506,-3382.03,-650.99,59.2
19.885802600,40518,-3057.15,-630.72,59.2
19.886008000,40499,-2728.78,-611.50,59.2
19.886285000,40498,-2398.49,-593.71,59.2
19.907155700,40510,-2068.18,-577.73,59.2
19.907320800,40499,-1740.18,-563.92,59.2
19.927314100,40516,-1416.95,-552.44,59.2
19.930723600,40517,-1100.74,-542.71,59.2
19.949017800,40515,-793.21,-533.46,59.2
19.949495000,40530,-495.33,-523.36,59.2
19.966907600,40533,-207.31,-511.33,59.2
19.967928800,40535,71.45,-496.46,59.2
19.986599300,40524,342.22,-478.35,59.2
19.986649400,40529,606.33,-457.29,59.2
20.006646800,40526,864.59,-434.20,59.2
20.007520400,40530,1117.17,-410.36,59.2
20.026008700,40533,1363.65,-386.97,59.2
20.028362500,40532,1603.35,-364.59,59.2
20.045498600,40543,1835.48,-343.66,59.2
20.046184300,40536,2059.39,-325.12,59.2
20.592058700,40551,2274.69,-309.98,59.2
20.592079900,40539,2481.30,-298.36,59.2
20.592095300,40558,2679.43,-289.86,59.2
20.592110300,40562,2869.59,-284.26,59.2
20.592125100,40576,3052.91,-281.15,59.2
20.592139600,40562,3231.27,-279.64,59.2
20.592153900,40562,3406.96,-278.86,59.2
20.592168600,40562,3581.89,-278.11,59.2
20.592183600,40545,3756.98,-276.56,59.2
20.592197700,40541,3931.77,-272.88,59.2
20.592212700,40524,4104.04,-265.04,59.2
20.592228100,40509,4269.61,-250.49,59.2
20.592243000,40495,4422.30,-226.31,59.2
20.592256800,40489,4554.15,-189.18,59.2
20.592270500,40485,4656.02,-135.92,59.2
20.592284800,40476,4718.53,-64.26,59.2
20.592297800,40451,4732.85,26.53,59.2
20.592312300,40456,4691.00,135.09,59.2
20.592325500,40454,4586.03,258.09,59.2
20.592338700,40466,4412.81,391.55,59.2
20.592351900,40467,4168.94,531.79,59.2
20.592365200,40447,3855.23,674.91,59.2
20.592384300,40440,3475.26,815.89,59.2
20.592398700,40455,3034.32,949.24,59.2
20.592412200,40451,2539.02,1070.71,59.2
20.592426000,40448,1997.33,1177.92,59.2
20.592440000,40417,1418.22,1269.53,59.1
20.592453800,40427,810.64,1344.60,59.1
20.592468000,40418,182.63,1402.76,59.0
20.592482300,40431,-458.68,1444.45,59.0
20.592497100,40411,-1106.69,1470.79,58.9
20.592510700,40399,-1755.17,1483.27,58.9
20.592525200,40390,-2398.83,1483.23,58.8
20.592539200,40398,-3033.73,1471.26,58.7
20.592553400,40398,-3657.00,1447.61,58.6
20.592569500,40403,-4266.10,1412.85,58.5
20.592583000,40395,-4858.21,1367.79,58.5
20.592596600,40399,-5430.13,1313.00,58.4
20.592611100,40392,-5978.45,1248.63,58.3
20.592624900,40410,-6499.71,1174.78,58.2
20.592639500,40409,-6990.26,1092.11,58.1
20.592653900,40409,-7446.07,1001.82,58.0
20.592668000,40397,-7862.87,905.21,58.0
20.592682200,40402,-8236.84,803.53,57.9
20.592696200,40399,-8565.09,698.00,57.8
20.592710000,40408,-8845.84,590.10,57.8
20.592723900,40400,-9078.12,481.81,57.7
20.592737400,40401,-9261.71,375.29,57.6
20.592750700,40394,-9397.16,272.38,57.6
20.592764900,40391,-9486.01,174.56,57.6
20.592778300,40388,-9530.84,82.81,57.5
20.592792100,40389,-9535.20,-2.42,57.5
20.592806400,40398,-9503.31,-80.83,57.5
20.592820100,40395,-9439.45,-152.12,57.5
20.607587100,40395,-9347.57,-216.34,57.5
20.607681500,40400,-9231.16,-273.87,57.5
20.625948400,40401,-9093.18,-325.18,57.5
20.626007100,40394,-8936.12,-370.79,57.5
20.645997500,40404,-8762.07,-411.67,57.5
20.646127100,40400,-8572.91,-449.11,57.5
20.665769700,40394,-8370.29,-483.95,57.5
20.665831200,40413,-8155.76,-516.44,57.5
20.685720100,40398,-7930.73,-546.65,57.5
20.685825000,40403,-7696.39,-574.88,57.5
20.705658500,40399,-7453.87,-601.53,57.5
20.706241100,40419,-7204.41,-626.62,57.5
20.725558500,40410,-6949.01,-649.55,57.5
20.745974000,40405,-6688.30,-669.68,57.5
20.746111200,40414,-6422.68,-686.65,57.5
20.766563700,40418,-6152.65,-700.49,57.5
20.766755000,40431,-5878.56,-711.53,57.5
20.786535100,40430,-5600.28,-719.93,57.5
20.786998800,40428,-5317.07,-725.18,57.5
20.806157600,40428,-5027.94,-726.77,57.5
20.806290400,40421,-4732.13,-725.17,57.5
20.826790100,40421,-4429.62,-721.55,57.5
20.826923800,40420,-4121.32,-716.70,57.5
20.845920000,40431,-3809.00,-710.84,57.5
20.846236800,40454,-3494.68,-703.88,57.5
20.866991900,40438,-3179.84,-695.61,57.5
20.867189100,40451,-2865.00,-685.74,57.5
20.886426200,40448,-2550.05,-673.70,57.5
20.886809300,40463,-2234.58,-658.93,57.5
20.906106700,40439,-1917.99,-641.12,57.5
20.906560300,40451,-1599.93,-620.23,57.5
20.925684000,40461,-1280.67,-596.64,57.5
20.925786300,40463,-960.92,-571.30,57.5
20.946840900,40439,-641.51,-545.68,57.5
20.946876600,40473,-323.54,-521.24,57.5
20.966774100,40452,-8.49,-498.73,57.5
20.966854700,40460,302.00,-478.47,57.5
20.986256500,40472,606.29,-461.31,57.5
20.986335400,40472,902.91,-448.25,57.5
21.006251100,40463,1190.88,-439.49,57.5
21.006795600,40483,1469.55,-434.51,57.5
21.026525500,40468,1738.52,-432.33,57.5
21.026631500,40485,1997.61,-431.62,57.5
21.045993200,40484,2246.85,-431.00,57.5
21.046388400,40489,2486.60,-429.44,57.5
21.607795100,40491,2717.56,-426.58,57.5
21.607829300,40499,2940.69,-422.35,57.5
21.607856800,40477,3157.06,-416.63,57.5
21.607883700,40490,3367.40,-409.59,57.5
21.607909000,40505,3571.78,-401.83,57.5
21.607934400,40502,3770.00,-393.67,57.5
21.607959500,40504,3962.14,-384.59,57.5
21.607984400,40508,4148.57,-373.60,57.5
21.608009200,40516,4329.82,-360.31,57.5
21.608033400,40531,4506.62,-345.37,57.5
21.608058100,40521,4680.20,-329.85,57.5
21.608082600,40520,4852.13,-314.38,57.5
21.608106500,40514,5023.75,-299.15,57.5
21.608131500,40507,5195.50,-284.24,57.5
21.608155600,40501,5366.47,-269.39,57.5
21.608179600,40487,5534.26,-253.62,57.5
21.608204000,40484,5694.88,-234.94,57.5
21.608228300,40454,5842.81,-210.24,57.5
21.608253100,40448,5970.98,-175.57,57.5
21.608277600,40431,6070.86,-126.85,57.5
21.608302400,40416,6132.75,-60.80,57.5
21.608326300,40429,6146.54,24.26,57.5
21.608350700,40418,6102.78,128.23,57.5
21.608375000,40428,5993.87,249.17,57.5
21.608399600,40411,5814.93,383.07,57.5
21.608423600,40421,5563.93,524.34,57.5
21.608447800,40425,5241.66,666.95,57.5
21.608471800,40421,4851.69,805.50,57.5
21.608512700,40424,4400.17,935.47,57.5
21.608574100,40407,3895.25,1053.34,57.5
21.608633200,40411,3346.25,1156.64,57.5
21.608691800,40384,2762.61,1243.77,57.5
21.608752200,40405,2153.22,1314.10,57.5
21.608812000,40391,1526.09,1368.05,57.5
21.608899500,40379,888.53,1406.92,57.5
21.608961400,40378,247.03,1432.15,57.5
21.609844600,40368,-393.05,1445.13,57.5
21.609979200,40348,-1027.59,1447.26,57.4
21.610053900,40353,-1653.84,1439.72,57.4
21.610123000,40371,-2270.27,1423.20,57.4
21.610189300,40355,-2875.63,1398.30,57.4
21.610397000,40365,-3468.17,1365.52,57.4
21.610471100,40374,-4045.33,1324.71,57.4
21.610535600,40367,-4603.71,1275.29,57.4
21.610587600,40371,-5139.04,1216.60,57.4
21.610613100,40375,-5646.56,1147.69,57.4
21.610638700,40366,-6121.40,1067.66,57.4
21.610664000,40378,-6558.88,976.37,57.3
21.610689200,40338,-6955.05,874.70,57.3
21.610714300,40365,-7307.24,764.25,57.3
21.610739200,40348,-7614.53,647.01,57.3
21.610764600,40350,-7877.43,525.40,57.3
21.610790000,40355,-8097.57,402.07,57.3
21.610823300,40348,-8277.23,279.46,57.3
21.610850900,40378,-8418.93,159.90,57.3
21.610876100,40351,-8524.81,45.81,57.3
21.625665400,40355,-8596.48,-60.82,57.3
21.625750900,40345,-8635.52,-158.95,57.3
21.647269400,40345,-8644.07,-248.21,57.3
21.647516000,40356,-8624.89,-328.59,57.3
21.666112600,40356,-8580.94,-400.32,57.3
21.666274900,40349,-8514.93,-463.65,57.3
21.685706900,40363,-8429.12,-518.74,57.3
21.685797400,40359,-8325.36,-565.51,57.3
21.705836400,40356,-8204.98,-604.03,57.3
21.706201600,40366,-8068.95,-635.10,57.3
21.725898000,40364,-7917.98,-660.05,57.3
21.725959500,40364,-7752.54,-680.06,57.3
21.745438300,40364,-7572.94,-696.16,57.3
21.745633100,40380,-7379.49,-709.45,57.3
21.765485500,40380,-7172.33,-720.48,57.3
21.765636800,40375,-6951.20,-728.81,57.3
21.786356700,40375,-6715.67,-733.50,57.3
21.786458000,40386,-6465.55,-734.19,57.3
21.805695900,40384,-6200.96,-731.17,57.3
21.805780700,40401,-5922.16,-724.97,57.3
21.862702300,40402,-5629.20,-716.22,57.3
21.862726800,40395,-5321.82,-705.51,57.3
21.863014200,40394,-4999.76,-693.17,57.3
21.863058700,40399,-4663.31,-679.06,57.3
21.865539100,40385,-4313.60,-663.01,57.3
21.865668900,40397,-3952.71,-645.47,57.3
21.886281200,40409,-3583.47,-627.36,57.3
21.886443400,40405,-3208.91,-609.16,57.3
21.907111500,40402,-2831.72,-590.73,57.3
21.907256300,40404,-2454.34,-572.11,57.3
21.925754300,40414,-2079.14,-553.87,57.3
21.946328300,40431,-1708.25,-536.07,57.3
21.946361800,40427,-1342.98,-517.85,57.3
21.966092300,40425,-983.58,-498.49,57.3
21.966128400,40433,-629.68,-478.24,57.3
21.985534700,40449,-280.64,-458.13,57.3
21.985727900,40426,64.42,-439.06,57.3
22.005728100,40439,406.37,-421.58,57.3
22.006260400,40437,745.61,-406.03,57.3
22.026036900,40443,1081.86,-392.11,57.3
22.026185000,40454,1414.52,-378.99,57.3
22.573549100,40459,1742.99,-366.09,57.3
22.573612400,40467,2067.09,-353.31,57.3
22.573663700,40465,2387.17,-340.69,57.3
22.573712800,40460,2703.91,-328.36,57.3
22.573760500,40454,3017.71,-316.76,57.3
22.573808000,40475,3328.29,-306.86,57.3
22.573854800,40472,3634.77,-299.95,57.3
22.573901400,40465,3936.11,-296.91,57.3
22.573948100,40461,4231.14,-298.05,57.3
22.573995300,40478,4518.22,-303.26,57.3
22.574043200,40455,4795.30,-312.23,57.3
22.574090300,40446,5059.92,-324.22,57.3
22.574139100,40440,5308.80,-337.25,57.3
22.574186600,40436,5537.50,-347.52,57.3
22.574234200,40407,5740.56,-349.70,57.3
22.574280900,40402,5911.53,-338.29,57.3
22.574327600,40382,6042.90,-309.34,57.3
22.574374100,40384,6126.39,-261.07,57.3
22.574421100,40381,6153.66,-193.43,57.3
22.574467500,40392,6117.43,-107.29,57.3
22.574513200,40380,6012.54,-4.29,57.3
22.574558400,40388,5836.59,112.77,57.3
22.574602800,40376,5589.97,239.93,57.3
22.574648000,40382,5275.48,372.50,57.3
22.574692600,40374,4897.99,505.21,57.3
22.574736400,40385,4463.97,633.16,57.3
22.574781700,40375,3981.28,752.49,57.3
22.574892500,40372,3458.75,859.92,57.3
22.574971800,40373,2905.69,952.35,57.3
22.575022000,40348,2331.20,1027.48,57.3
22.575068900,40365,1743.63,1084.23,57.4
22.575115100,40359,1150.26,1122.51,57.5
22.575161700,40362,557.59,1143.13,57.5
22.575209400,40349,-28.42,1147.96,57.6
22.575257600,40353,-602.40,1139.62,57.8
22.575305200,40359,-1159.78,1120.78,57.9
22.575352200,40363,-1696.48,1093.31,58.0
22.575399500,40363,-2208.56,1058.17,58.1
22.575446800,40371,-2692.02,1015.75,58.3
22.575494200,40350,-3142.87,966.21,58.4
22.575541000,40361,-3557.62,909.21,58.6
22.575589500,40350,-3933.74,844.14,58.8
22.575637800,40363,-4269.83,771.27,58.9
22.575686500,40344,-4565.39,692.17,59.1
22.575732000,40371,-4820.71,609.05,59.2
22.575776300,40363,-5036.52,523.89,59.4
22.575821500,40350,-5213.61,438.19,59.5
22.575865900,40358,-5353.02,353.07,59.7
22.575911800,40362,-5456.29,269.74,59.8
22.575956900,40346,-5525.46,189.96,60.0
22.576001700,40345,-5563.01,115.57,60.1
22.576046400,40351,-5572.06,47.51,60.2
22.576090700,40356,-5556.27,-14.29,60.3
22.576134800,40359,-5519.16,-70.18,60.4
22.586434300,40356,-5463.73,-120.40,60.4
22.586723200,40368,-5392.28,-165.11,60.5
22.606914200,40358,-5306.44,-204.77,60.5
22.606934100,40358,-5207.35,-240.28,60.6
22.625732100,40346,-5096.02,-273.07,60.6
22.626054400,40349,-4973.88,-304.70,60.6
22.645706100,40372,-4842.87,-336.25,60.6
22.646028900,40372,-4704.77,-368.00,60.6
22.665746700,40368,-4560.50,-399.85,60.6
22.665948800,40383,-4410.01,-431.47,60.6
22.686849600,40395,-4252.43,-461.86,60.6
22.687032300,40379,-4086.08,-489.20,60.6
22.705458600,40370,-3908.92,-512.13,60.6
22.705555800,40392,-3719.40,-530.27,60.6
22.725677700,40384,-3516.82,-543.59,60.6
22.726004300,40382,-3301.10,-552.25,60.6
22.745713200,40376,-3072.71,-556.93,60.6
22.745817000,40383,-2832.98,-558.60,60.6
22.765476700,40399,-2583.91,-558.08,60.6
22.765736400,40400,-2327.58,-555.37,60.6
22.785358100,40389,-2065.56,-549.78,60.6
22.785499700,40394,-1799.08,-541.16,60.6
22.805901500,40390,-1529.48,-530.78,60.6
22.806205400,40396,-1258.44,-520.56,60.6
22.825785200,40407,-987.82,-511.56,60.6
22.825945900,40421,-719.15,-503.57,60.6
22.845517600,40403,-453.17,-495.80,60.6
22.845624800,40416,-189.91,-488.17,60.6
22.866008300,40413,70.84,-481.55,60.6
22.866161700,40392,329.10,-476.93,60.6
22.886423700,40408,584.24,-474.51,60.6
22.886846700,40414,834.81,-473.79,60.6
22.905642100,40409,1079.00,-474.07,60.6
22.905867500,40439,1315.30,-474.73,60.6
22.925659000,40432,1543.01,-474.91,60.6
22.925928100,40419,1762.56,-473.43,60.6
22.946034900,40441,1975.01,-469.49,60.6
22.948089800,40441,2181.58,-462.83,60.6
22.966481400,40432,2383.64,-453.23,60.6
22.966515500,40456,2582.63,-440.66,60.6
22.986051500,40440,2779.96,-425.36,60.6
22.986743200,40453,2976.89,-407.67,60.6
23.005947400,40448,3174.46,-388.27,60.6
23.006553000,40457,3373.31,-367.87,60.6
23.026644300,40441,3573.66,-346.62,60.6
23.026731700,40427,3774.97,-324.20,60.6
23.662530900,40413,3975.27,-300.12,60.6
23.662575900,40405,4170.60,-273.53,60.6
23.662607100,40384,4354.91,-242.78,60.6
23.662634100,40379,4520.32,-205.46,60.6
23.662660600,40363,4657.57,-158.94,60.6
23.662686500,40358,4756.72,-100.86,60.6
23.662714200,40349,4807.85,-29.78,60.6
23.662740700,40373,4801.97,54.61,60.6
23.662767900,40355,4732.23,151.79,60.6
23.662794200,40366,4594.71,260.05,60.6
23.662822800,40353,4388.64,376.09,60.6
23.662850300,40363,4115.99,495.34,60.6
23.662876600,40350,3781.07,612.59,60.6
23.662908700,40350,3389.95,722.73,60.6
23.662938800,40348,2949.92,821.50,60.6
23.662965700,40339,2468.86,905.86,60.7
23.662994800,40342,1954.90,974.13,60.8
23.663022200,40339,1416.07,1026.15,60.9
23.663049700,40331,860.15,1062.81,61.0
23.663076300,40327,294.46,1085.26,61.2
23.663102300,40309,-274.49,1094.54,61.4
23.663129100,40318,-841.39,1091.81,61.6
23.663155600,40327,-1402.05,1078.89,61.8
23.663183700,40311,-1952.89,1058.42,62.1
23.663210700,40324,-2490.40,1033.18,62.3
23.663237200,40326,-3011.12,1005.18,62.6
23.663264100,40320,-3511.39,975.04,62.8
23.663291400,40316,-3987.49,941.73,63.1
23.663317200,40334,-4435.83,903.48,63.4
23.663343400,40322,-4853.04,859.42,63.7
23.663370600,40327,-5235.88,809.61,64.0
23.663397700,40324,-5581.43,753.98,64.2
23.663425300,40320,-5887.37,692.57,64.5
23.663452000,40322,-6152.19,626.09,64.7
23.663479800,40330,-6375.25,555.99,65.0
23.663505800,40321,-6556.58,484.03,65.2
23.663531100,40328,-6696.68,411.77,65.4
23.663556100,40319,-6796.59,340.43,65.6
23.663581900,40339,-6857.78,271.09,65.8
23.663607800,40326,-6882.02,204.92,65.9
23.663634100,40332,-6871.11,143.14,66.0
23.663659700,40339,-6826.85,86.37,66.1
23.663685000,40347,-6751.06,34.27,66.2
23.663710400,40338,-6645.23,-14.03,66.2
23.663735800,40357,-6510.57,-59.66,66.2
23.663761300,40352,-6348.07,-103.65,66.2
23.663790000,40355,-6158.50,-146.60,66.2
23.663815300,40344,-5942.64,-188.90,66.2
23.663841100,40356,-5701.74,-231.26,66.2
23.663867800,40352,-5437.69,-274.81,66.2
23.663893600,40343,-5153.01,-320.37,66.2
23.663919000,40348,-4850.81,-367.84,66.2
23.663943800,40356,-4534.87,-416.21,66.2
23.663970000,40347,-4209.23,-464.00,66.2
23.663995200,40355,-3877.86,-509.96,66.2
23.664037900,40365,-3544.48,-553.50,66.2
23.664064200,40368,-3212.20,-594.35,66.2
23.664090200,40367,-2883.16,-631.97,66.2
23.664115500,40376,-2558.60,-665.53,66.2
23.664140800,40374,-2239.02,-694.06,66.2
23.664166000,40373,-1924.43,-716.77,66.2
23.666547100,40379,-1614.60,-733.72,66.2
23.666710200,40376,-1309.34,-745.95,66.2
23.686188200,40391,-1008.51,-754.87,66.2
23.686209100,40392,-711.87,-761.39,66.2
23.705810300,40399,-418.85,-765.73,66.2
23.706648900,40390,-128.55,-767.67,66.2
23.725556400,40394,159.97,-767.06,66.2
23.726924300,40403,447.24,-763.64,66.2
23.746259100,40391,733.40,-757.10,66.2
23.746520400,40401,1018.12,-747.58,66.2
23.766266800,40409,1300.70,-735.58,66.2
23.766299700,40411,1580.26,-720.99,66.2
23.785755600,40412,1856.17,-703.27,66.2
23.785886400,40405,2127.95,-682.55,66.2
23.805773000,40423,2395.09,-659.69,66.2
23.806613600,40427,2657.07,-635.29,66.2
23.895914700,40420,2913.66,-609.61,66.2
23.895934800,40421,3164.89,-583.45,66.2
23.895950000,40426,3410.71,-558.47,66.2
23.895964700,40434,3650.79,-536.10,66.2
23.895979400,40439,3884.83,-516.33,66.2
23.895993100,40426,4112.71,-498.13,66.2
23.896006900,40443,4334.39,-481.13,66.2
23.896021000,40465,4549.82,-465.63,66.2
23.905625600,40461,4759.52,-451.54,66.2
23.905772600,40460,4964.95,-438.34,66.2
23.926800100,40459,5168.08,-425.72,66.2
23.926826300,40467,5370.71,-413.61,66.2
23.945678700,40471,5574.16,-402.16,66.2
23.945951100,40464,5779.23,-391.79,66.2
23.965851400,40485,5986.29,-383.05,66.2
23.966029700,40476,6195.34,-376.29,66.2
23.986780600,40492,6406.24,-371.02,66.2
23.987428700,40460,6618.68,-365.90,66.2
24.006929100,40466,6831.71,-359.85,66.2
24.006961100,40459,7043.01,-352.52,66.2
24.025541300,40449,7248.78,-343.32,66.2
24.027362800,40416,7443.80,-330.16,66.2
24.045792900,40408,7621.11,-309.55,66.2
24.045966200,40387,7771.78,-277.63,66.2
24.533885300,40389,7885.20,-231.26,66.2
24.533906100,40379,7950.10,-167.82,66.2
24.533922400,40367,7955.69,-85.03,66.2
24.533937200,40369,7892.57,17.60,66.2
24.533952100,40372,7753.37,137.69,66.2
24.533967300,40364,7533.42,270.55,66.2
24.533981300,40376,7231.24,410.62,66.2
24.534000100,40343,6848.39,552.62,66.2
24.534015200,40369,6389.08,691.88,66.2
24.534029100,40343,5859.42,824.29,66.2
24.534043500,40347,5267.04,946.45,66.2
24.534057900,40328,4620.44,1055.47,66.1
24.534073200,40333,3928.39,1148.96,66.1
24.534087900,40330,3199.50,1225.44,66.0
24.534102600,40333,2442.29,1284.49,65.9
24.534117700,40317,1665.34,1327.02,65.9
24.534131600,40307,877.05,1355.17,65.8
24.534145400,40315,85.10,1371.55,65.7
24.534159600,40294,-703.80,1378.35,65.6
24.534173600,40300,-1483.87,1376.94,65.5
24.534187400,40313,-2250.13,1368.20,65.4
24.534201300,40316,-2997.87,1353.01,65.3
24.534214900,40309,-3721.96,1331.85,65.2
24.534229400,40313,-4416.80,1304.12,65.1
24.534244300,40316,-5076.69,1268.38,65.0
24.534258800,40330,-5696.06,1223.39,64.9
24.534272800,40327,-6269.31,1168.84,64.8
24.534287900,40329,-6790.86,1105.18,64.7
24.534302300,40312,-7255.59,1033.12,64.7
24.534317000,40329,-7659.49,953.47,64.6
24.534331100,40337,-7999.99,867.38,64.5
24.534345700,40320,-8275.68,776.83,64.4
24.534359900,40312,-8486.22,684.19,64.4
24.534373700,40305,-8632.94,591.36,64.3
24.534389100,40337,-8719.06,499.74,64.3
24.534402800,40325,-8748.95,410.43,64.2
24.534417000,40336,-8727.07,324.49,64.2
24.534430900,40315,-8657.57,242.91,64.2
24.534445000,40326,-8544.69,165.98,64.2
24.534458800,40327,-8393.03,92.98,64.2
24.534472500,40314,-8207.50,22.70,64.2
24.534486300,40317,-7993.27,-45.99,64.2
24.534499800,40319,-7755.78,-113.69,64.2
24.534513400,40314,-7500.63,-180.61,64.2
24.534527500,40322,-7233.21,-246.98,64.2
24.534541300,40320,-6958.49,-313.12,64.2
24.534554900,40344,-6680.60,-378.88,64.2
24.546004100,40337,-6402.38,-443.30,64.2
24.546061600,40343,-6125.10,-504.76,64.2
24.565779000,40326,-5848.79,-562.11,64.2
24.565798700,40341,-5573.04,-615.03,64.2
24.586454400,40332,-5297.56,-663.01,64.2
24.586481100,40348,-5022.25,-705.07,64.2
24.606316700,40350,-4746.99,-740.47,64.2
24.607074000,40359,-4471.29,-769.14,64.2
24.625763500,40346,-4194.22,-791.31,64.2
24.626092800,40358,-3914.66,-807.10,64.2
24.645900100,40359,-3631.68,-816.78,64.2
24.646123900,40358,-3344.63,-821.26,64.2
24.665493200,40369,-3053.08,-821.76,64.2
24.666284800,40376,-2756.72,-819.29,64.2
24.685953600,40380,-2455.11,-814.67,64.2
24.687389900,40387,-2147.50,-808.54,64.2
24.705872500,40393,-1832.88,-800.92,64.2
24.705992700,40389,-1510.06,-791.19,64.2
24.726017200,40396,-1177.98,-778.75,64.2
24.726328900,40384,-836.07,-763.30,64.2
24.746077300,40401,-484.55,-745.03,64.2
24.746184800,40396,-124.44,-724.73,64.2
24.766024200,40394,242.60,-703.98,64.2
24.766645100,40427,614.56,-684.78,64.2
24.785884300,40412,989.51,-668.12,64.2
24.786521900,40405,1366.02,-653.33,64.2
24.805863300,40419,1742.78,-639.41,64.2
24.806011800,40409,2118.10,-626.14,64.2
24.825795800,40424,2489.99,-613.96,64.2
24.825885200,40426,2856.33,-603.48,64.2
24.845854300,40425,3215.24,-594.99,64.2
24.846264600,40425,3565.10,-588.24,64.2
24.866671900,40427,3904.44,-582.62,64.2
24.866761600,40429,4231.76,-577.40,64.2
24.887862800,40432,4545.55,-571.84,64.2
24.887882600,40422,4844.37,-565.45,64.2
24.905711200,40445,5126.78,-558.14,64.2
24.905730300,40448,5391.60,-549.78,64.2
24.925569400,40445,5638.39,-539.76,64.2
24.925666700,40461,5867.59,-527.17,64.2
24.945544700,40456,6080.39,-511.12,64.2
24.945727300,40461,6278.55,-491.28,64.2
24.966227800,40453,6464.06,-468.37,64.2
24.966247300,40461,6638.64,-443.63,64.2
24.985466700,40464,6803.56,-418.38,64.2
24.985778900,40469,6959.68,-393.81,64.2
25.005670300,40492,7107.83,-370.57,64.2
25.005929000,40482,7249.23,-348.40,64.2
25.025440500,40474,7385.62,-326.56,64.2
25.025803200,40476,7518.62,-304.52,64.2
25.600421700,40475,7649.05,-282.59,64.2
25.600441500,40478,7776.71,-261.71,64.2
25.600456600,40460,7900.54,-242.43,64.2
25.600471100,40442,8018.40,-223.88,64.2
25.600485000,40440,8126.63,-203.62,64.2
25.600498700,40417,8219.73,-178.03,64.2
25.600526200,40407,8290.58,-143.06,64.2
25.600546500,40413,8330.82,-95.50,64.2
25.600560100,40402,8331.64,-33.31,64.2
25.600574300,40390,8284.86,44.56,64.2
25.600588000,40390,8183.40,138.03,64.2
25.600601700,40401,8021.70,245.66,64.2
25.600614800,40388,7796.29,364.57,64.2
25.600629400,40402,7506.25,490.74,64.2
25.600644500,40401,7153.32,619.55,64.2
25.600663300,40394,6741.81,746.18,64.2
25.600678200,40390,6278.11,865.70,64.2
25.600691900,40387,5769.90,973.42,64.1
25.600706900,40380,5225.36,1065.89,64.0
25.600720600,40373,4652.62,1141.27,63.9
25.600734500,40382,4059.37,1199.05,63.8
25.600748000,40367,3452.75,1240.24,63.7
25.600761400,40359,2839.29,1267.22,63.5
25.600775500,40335,2224.51,1282.41,63.3
25.600789300,40351,1612.35,1287.30,63.1
25.600803400,40353,1005.33,1282.92,62.9
25.600817400,40349,405.40,1270.30,62.7
25.600831300,40353,-185.30,1250.53,62.5
25.600844900,40340,-764.26,1224.37,62.3
25.600858200,40358,-1328.71,1191.94,62.1
25.600871700,40362,-1875.59,1152.79,61.8
25.600885100,40359,-2401.21,1106.09,61.6
25.600899000,40375,-2901.15,1051.08,61.4
25.600912300,40362,-3370.47,987.54,61.1
25.600926000,40366,-3804.09,915.79,60.9
25.600940200,40371,-4197.33,836.67,60.7
25.600953400,40364,-4546.29,751.66,60.5
25.600967500,40356,-4848.10,662.33,60.3
25.600984100,40358,-5101.25,569.56,60.1
25.600997900,40342,-5305.90,474.08,60.0
25.601011700,40350,-5463.94,377.16,59.8
25.601038300,40348,-5578.78,280.41,59.7
25.601055100,40364,-5654.66,185.20,59.6
25.601069800,40358,-5695.90,92.60,59.5
25.601083900,40362,-5706.25,3.70,59.5
25.601097400,40345,-5688.92,-80.58,59.4
25.601111600,40359,-5646.95,-160.14,59.4
25.601126100,40354,-5583.45,-235.83,59.4
25.601150600,40360,-5501.43,-308.29,59.4
25.601169400,40348,-5403.64,-377.33,59.4
25.601184000,40366,-5292.58,-442.36,59.4
25.601198000,40370,-5170.38,-502.85,59.4
25.601211900,40373,-5038.44,-558.27,59.4
25.601225700,40382,-4897.16,-608.00,59.4
25.601239200,40361,-4746.13,-651.32,59.4
25.605695000,40362,-4584.77,-687.73,59.4
25.605718800,40383,-4413.00,-717.34,59.4
25.626809200,40363,-4231.28,-740.44,59.4
25.626973400,40383,-4040.27,-757.10,59.4
25.646614500,40374,-3840.69,-767.23,59.4
25.646716700,40363,-3633.39,-770.88,59.4
25.646928300,40364,-3419.63,-768.60,59.4
25.665768600,40381,-3201.33,-761.30,59.4
25.685768400,40357,-2980.79,-749.15,59.4
25.686161300,40380,-2760.37,-731.84,59.4
25.705516400,40363,-2542.36,-709.69,59.4
25.705620500,40375,-2328.87,-684.32,59.4
25.725766400,40394,-2121.62,-657.89,59.4
25.725932200,40367,-1921.57,-631.91,59.4
25.745873500,40371,-1728.99,-606.94,59.4
25.746374100,40379,-1544.04,-583.45,59.4
25.766196700,40389,-1366.99,-561.90,59.4
25.766378500,40381,-1197.80,-542.30,59.4
25.785612400,40401,-1035.81,-524.09,59.4
25.785703500,40393,-879.74,-506.47,59.4
25.805526800,40406,-727.68,-488.79,59.4
25.805704700,40414,-577.23,-470.66,59.4
25.873992100,40413,-425.51,-451.60,59.4
25.874076300,40426,-269.27,-431.20,59.4
25.874090400,40400,-105.26,-409.87,59.4
25.874103400,40412,69.09,-389.31,59.4
25.874116000,40427,255.16,-371.29,59.4
25.874129300,40414,453.34,-355.84,59.4
25.885761300,40435,663.42,-341.30,59.4
25.885843700,40438,885.01,-325.85,59.4
25.906935200,40428,1117.67,-308.52,59.4
25.907025200,40423,1360.89,-289.61,59.4
25.925760100,40433,1613.48,-270.41,59.4
25.925861900,40438,1873.47,-252.12,59.4
25.945831100,40437,2138.50,-235.12,59.4
25.945920200,40448,2406.27,-219.28,59.4
25.965760900,40428,2674.64,-204.70,59.4
25.965781000,40463,2941.55,-191.70,59.4
25.985595300,40456,3205.21,-180.20,59.4
25.985762800,40448,3464.42,-169.67,59.4
26.005643700,40444,3718.43,-159.69,59.4
26.005725600,40457,3966.25,-150.47,59.4
26.025299200,40463,4206.63,-142.66,59.4
26.025425300,40453,4438.39,-137.16,59.4
26.045415400,40456,4660.59,-135.00,59.4
26.045718000,40464,4872.25,-136.51,59.4
26.552764600,40461,5072.44,-140.84,59.4
26.552785200,40460,5260.31,-146.31,59.4
26.552800500,40445,5435.05,-151.14,59.4
26.552816100,40448,5595.42,-153.81,59.4
26.552830200,40438,5739.49,-152.75,59.4
26.552843700,40408,5864.42,-145.69,59.4
26.552857400,40392,5966.08,-129.67,59.4
26.552871000,40388,6038.56,-101.85,59.4
26.552886000,40391,6074.40,-59.73,59.4
26.552899700,40389,6065.81,-1.49,59.4
26.552913500,40379,6005.93,73.16,59.4
26.553187900,40384,5889.56,162.62,59.4
26.553291400,40390,5713.51,264.05,59.4
26.553361400,40365,5476.88,373.96,59.4
26.553415000,40369,5180.83,488.22,59.4
26.553440300,40385,4828.04,602.38,59.4
26.553471600,40391,4422.85,712.40,59.4
26.553498100,40378,3971.60,814.83,59.4
26.553523700,40379,3482.45,906.87,59.4
26.553549100,40359,2964.34,986.32,59.4
26.553574100,40363,2425.92,1051.48,59.4
26.553600400,40352,1874.90,1101.34,59.4
26.553626300,40346,1317.73,1135.69,59.4
26.553652200,40357,759.64,1154.83,59.4
26.553677900,40346,204.97,1160.01,59.4
26.553705100,40335,-342.54,1153.49,59.3
26.553731000,40339,-879.79,1137.38,59.3
26.553756400,40343,-1404.36,1112.91,59.3
26.553781500,40354,-1914.12,1080.88,59.3
26.553807200,40350,-2406.60,1041.86,59.3
26.553832600,40342,-2878.71,995.96,59.3
26.553857900,40358,-3327.04,942.94,59.2
26.553883100,40344,-3748.18,882.81,59.2
26.553909500,40370,-4138.78,816.20,59.2
26.553935100,40370,-4495.38,744.28,59.2
26.553961100,40350,-4814.27,668.84,59.2
26.553986400,40340,-5092.12,591.91,59.1
26.554011400,40345,-5327.03,514.91,59.1
26.554037000,40360,-5518.90,438.69,59.1
26.554062400,40346,-5668.85,364.54,59.1
26.554087400,40322,-5778.78,293.98,59.1
26.554112700,40327,-5851.72,227.37,59.1
26.554138600,40351,-5892.10,163.79,59.1
26.554164800,40336,-5904.96,102.29,59.0
26.554191700,40337,-5894.94,42.35,59.0
26.554217900,40333,-5866.06,-16.30,59.0
26.554243300,40348,-5821.96,-73.72,59.0
26.554268800,40348,-5765.60,-129.58,59.0
26.554294200,40338,-5699.01,-183.21,59.0
26.554318700,40334,-5623.51,-234.38,59.0
26.565550700,40363,-5540.08,-283.30,59.0
26.565661900,40362,-5449.22,-329.93,59.0
26.585380100,40349,-5350.43,-373.97,59.0
26.585535500,40352,-5242.50,-415.35,59.0
26.605556400,40366,-5124.15,-454.27,59.0
26.607476200,40355,-4994.33,-490.53,59.0
26.625915500,40358,-4852.15,-523.45,59.0
26.626035300,40362,-4697.05,-552.67,59.0
26.645908400,40344,-4529.02,-578.67,59.0
26.646019100,40357,-4348.79,-602.45,59.0
26.665811900,40370,-4157.81,-624.78,59.0
26.665994300,40384,-3957.61,-645.09,59.0
26.687272100,40375,-3748.96,-661.36,59.0
26.687406200,40368,-3531.76,-671.49,59.0
26.705822100,40361,-3305.83,-674.69,59.0
26.705841700,40376,-3071.62,-671.66,59.0
26.725794100,40369,-2830.35,-664.12,59.0
26.725864200,40375,-2583.60,-654.11,59.0
26.745380900,40378,-2333.07,-643.16,59.0
26.765721700,40378,-2080.38,-631.88,59.0
26.765925100,40375,-1827.03,-620.15,59.0
26.786003400,40372,-1574.47,-607.69,59.0
26.786212100,40390,-1324.23,-594.66,59.0
26.805479900,40381,-1077.74,-581.50,59.0
26.805618100,40385,-836.07,-568.28,59.0
26.825775900,40395,-599.87,-554.61,59.0
26.825795400,40391,-369.43,-540.11,59.0
26.845734900,40392,-144.67,-524.74,59.0
26.845872600,40395,74.73,-508.70,59.0
26.865986900,40395,289.07,-492.29,59.0
26.866073800,40412,498.68,-475.76,59.0
26.885557200,40421,704.19,-459.24,59.0
26.885857700,40411,906.90,-442.82,59.0
26.905446800,40418,1108.65,-426.52,59.0
26.905660700,40424,1311.32,-410.00,59.0
26.925740700,40423,1516.58,-392.45,59.0
26.925867100,40425,1725.77,-373.55,59.0
26.947229400,40428,1939.85,-353.92,59.0
26.947378400,40426,2159.20,-334.65,59.0
26.965508900,40423,2383.63,-316.62,59.0
26.965589800,40437,2612.28,-300.41,59.0
26.985527200,40433,2843.81,-286.18,59.0
26.985602600,40432,3076.71,-273.85,59.0
27.005250100,40432,3309.34,-263.23,59.0
27.005488500,40458,3539.94,-253.84,59.0
27.026243200,40450,3767.07,-244.84,59.0
27.026277800,40455,3990.05,-235.50,59.0
27.045574500,40433,4208.73,-225.78,59.0
27.045796400,40445,4422.75,-216.32,59.0
27.624346400,40443,4630.96,-207.92,59.0
27.624410300,40477,4831.75,-200.84,59.0
27.624444500,40463,5023.97,-194.35,59.0
27.624477400,40452,5207.41,-187.23,59.0
27.624510500,40450,5382.24,-178.94,59.0
27.624542400,40473,5548.27,-169.96,59.0
27.624574000,40459,5704.96,-160.74,59.0
27.624606300,40448,5851.75,-151.09,59.0
27.624638400,40436,5987.73,-140.20,59.0
27.624671400,40428,6110.89,-126.65,59.0
27.624702400,40396,6217.62,-108.32,59.0
27.624734400,40400,6302.51,-82.51,59.0
27.624765300,40388,6358.50,-46.57,59.0
27.624796500,40383,6377.58,1.45,59.0
27.624828300,40378,6351.80,62.61,59.0
27.624859100,40374,6274.03,136.95,59.0
27.624890300,40386,6138.60,223.15,59.0
27.624921200,40381,5942.07,318.59,59.0
27.624952500,40365,5683.57,419.98,59.0
27.624982700,40382,5364.58,523.77,59.0
27.625019900,40361,4988.48,626.25,59.0
27.625052600,40374,4560.22,723.71,59.0
27.625084200,40377,4086.06,813.02,59.0
27.625116100,40367,3573.41,892.13,59.0
27.625147800,40361,3030.60,959.74,59.0
27.625179900,40365,2466.15,1014.95,59.0
27.625213400,40351,1888.22,1057.84,59.0
27.625248400,40350,1304.32,1089.50,59.0
27.625280400,40341,720.92,1111.54,58.9
27.625312000,40336,143.28,1125.60,58.9
27.625343300,40332,-424.63,1132.85,58.9
27.625374600,40329,-979.97,1133.89,58.9
27.625456600,40345,-1520.73,1129.21,58.9
27.625489900,40334,-2045.09,1119.42,58.8
27.625524200,40332,-2551.01,1104.55,58.8
27.625556500,40328,-3036.32,1083.47,58.8
27.625589200,40335,-3498.96,1054.40,58.8
27.625621100,40323,-3937.13,1015.63,58.7
27.625653800,40333,-4349.18,965.65,58.7
27.625685700,40336,-4733.63,903.74,58.7
27.625717500,40331,-5088.97,830.82,58.7
27.625758400,40348,-5413.54,749.12,58.6
27.625816400,40318,-5705.54,661.13,58.6
27.625874700,40328,-5963.49,568.51,58.6
27.625932300,40329,-6186.67,472.34,58.6
27.625991100,40350,-6375.15,374.52,58.6
27.626088200,40323,-6529.12,278.35,58.6
27.626202600,40338,-6648.74,187.10,58.5
27.626273300,40333,-6734.48,102.69,58.5
27.626337200,40340,-6787.19,25.74,58.5
27.626380100,40344,-6807.90,-43.92,58.5
27.626415600,40327,-6797.71,-106.66,58.5
27.626449300,40336,-6757.99,-163.08,58.5
27.626483900,40322,-6690.70,-214.20,58.5
27.626517700,40328,-6598.59,-260.85,58.5
27.626551500,40322,-6485.07,-303.14,58.5
27.626962000,40337,-6353.95,-340.71,58.5
27.626995300,40339,-6208.91,-373.06,58.5
27.646420600,40334,-6052.92,-399.63,58.5
27.646556300,40332,-5888.18,-420.33,58.5
27.665698400,40347,-5716.37,-435.99,58.5
27.665727400,40340,-5538.71,-447.78,58.5
27.685455300,40340,-5355.89,-456.51,58.5
27.685604400,40347,-5168.24,-462.93,58.5
27.705538200,40343,-4975.89,-467.94,58.5
27.705635000,40347,-4778.92,-472.15,58.5
27.725591700,40357,-4577.30,-475.56,58.5
27.725667900,40349,-4370.85,-477.98,58.5
27.745952400,40345,-4159.32,-479.67,58.5
27.745969700,40342,-3942.75,-481.24,58.5
27.765499600,40348,-3721.79,-482.99,58.5
27.765727700,40363,-3497.62,-484.30,58.5
27.786833500,40356,-3271.37,-483.89,58.5
27.786855700,40358,-3043.69,-480.92,58.5
27.805973600,40358,-2814.95,-476.02,58.5
27.806166000,40367,-2585.43,-470.75,58.5
27.869044400,40373,-2355.26,-465.97,58.5
27.869060800,40379,-2124.22,-461.18,58.5
27.869073900,40358,-1891.66,-455.22,58.5
27.869086300,40372,-1656.99,-447.61,58.5
27.869099200,40360,-1420.21,-439.00,58.5
27.869111000,40385,-1182.02,-430.31,58.5
27.885572900,40379,-943.32,-422.17,58.5
27.885661800,40381,-704.75,-415.05,58.5
27.905606700,40379,-466.64,-409.26,58.5
27.905727300,40368,-229.35,-405.10,58.5
27.925545700,40390,6.34,-403.06,58.5
27.925801000,40380,239.38,-403.77,58.5
27.945824800,40373,468.60,-407.38,58.5
27.965960300,40388,692.81,-413.35,58.5
27.967684800,40392,910.71,-420.73,58.5
27.985366300,40394,1121.35,-428.34,58.5
27.985387100,40396,1324.39,-435.15,58.5
28.005306900,40393,1520.03,-440.71,58.5
28.005521300,40395,1708.67,-445.17,58.5
28.025831900,40389,1890.65,-448.60,58.5
28.025965800,40381,2065.89,-450.72,58.5
28.630723500,40403,2233.78,-451.17,58.5
28.630743800,40396,2393.37,-449.61,58.5
28.630758900,40391,2543.87,-445.52,58.5
28.630773300,40400,2684.72,-438.36,58.5
28.630788200,40404,2815.52,-428.02,58.5
28.630802000,40408,2936.16,-414.48,58.5
28.630816000,40411,3047.10,-397.41,58.5
28.630829700,40405,3149.32,-376.94,58.5
28.630843100,40415,3244.04,-354.18,58.5
28.630857600,40430,3332.64,-330.70,58.5
28.630871000,40430,3416.91,-307.38,58.5
28.630884800,40424,3499.20,-283.97,58.5
28.630898800,40410,3581.99,-260.19,58.5
28.630912600,40426,3667.06,-236.56,58.5
28.630926400,40419,3755.11,-214.00,58.5
28.630939800,40427,3846.03,-193.33,58.5
28.630953600,40395,3939.05,-174.95,58.5
28.630967600,40397,4032.46,-158.56,58.5
28.630981200,40381,4122.97,-142.72,58.5
28.630994300,40379,4205.67,-124.45,58.5
28.631009600,40356,4274.32,-99.56,58.5
28.631023200,40346,4321.66,-64.36,58.5
28.631036800,40359,4339.69,-16.49,58.5
28.631050500,40348,4320.53,45.53,58.5
28.631064300,40346,4257.40,122.38,58.5
28.631078200,40353,4145.34,213.23,58.5
28.631092300,40350,3981.49,315.58,58.5
28.631105600,40341,3765.31,425.82,58.5
28.631119300,40330,3498.23,539.89,58.5
28.631137000,40340,3183.06,653.61,58.5
28.631152100,40333,2823.58,762.89,58.5
28.631166200,40323,2424.48,864.05,58.5
28.631180600,40328,1991.10,953.96,58.5
28.631195100,40325,1529.12,1030.53,58.4
28.631209500,40310,1044.42,1093.02,58.4
28.631223500,40322,542.84,1141.47,58.4
28.631237700,40305,29.95,1176.29,58.3
28.631251700,40298,-489.10,1198.58,58.3
28.631266900,40281,-1009.94,1209.94,58.2
28.631280600,40304,-1529.29,1211.71,58.2
28.631294700,40304,-2044.62,1204.99,58.1
28.631308800,40289,-2553.30,1191.18,58.1
28.631322700,40302,-3052.27,1172.01,58.0
28.631337700,40286,-3538.26,1148.75,58.0
28.631351400,40302,-4008.04,1121.37,57.9
28.631366000,40305,-4458.32,1088.40,57.8
28.631379800,40287,-4885.61,1047.79,57.8
28.631394100,40312,-5286.37,998.17,57.7
28.631407600,40303,-5657.14,939.33,57.7
28.631422100,40291,-5994.62,871.88,57.6
28.631436200,40290,-6296.04,796.93,57.5
28.631449800,40279,-6559.78,716.41,57.5
28.631463500,40284,-6785.75,632.67,57.4
28.631477700,40282,-6975.17,547.41,57.4
28.631491700,40277,-7130.21,461.53,57.4
28.631506200,40292,-7253.53,375.89,57.3
28.631520300,40267,-7347.92,291.66,57.3
28.631533900,40291,-7416.14,209.82,57.3
28.631547500,40277,-7460.83,131.03,57.3
28.631562000,40279,-7484.34,55.76,57.3
28.645884500,40289,-7488.73,-15.59,57.3
28.646040800,40279,-7475.64,-82.36,57.3
28.665453800,40279,-7446.36,-143.63,57.3
28.665633900,40277,-7402.02,-198.75,57.3
28.685666500,40272,-7343.83,-247.88,57.3
28.686025500,40282,-7273.20,-291.99,57.3
28.705792200,40278,-7191.59,-332.40,57.3
28.706414500,40282,-7100.23,-369.77,57.3
28.725448100,40280,-7000.02,-403.80,57.3
28.725555400,40291,-6891.54,-434.14,57.3
28.745539400,40293,-6774.91,-461.03,57.3
28.745795700,40309,-6649.57,-484.86,57.3
28.765307500,40294,-6514.19,-505.52,57.3
28.765394700,40297,-6366.90,-522.61,57.3
28.785526300,40282,-6206.07,-536.05,57.3
28.785631500,40300,-6030.92,-546.26,57.3
28.806128600,40296,-5841.64,-553.83,57.3
28.806256900,40303,-5638.92,-558.98,57.3
28.825118100,40303,-5423.60,-561.25,57.3
28.825299900,40291,-5196.62,-559.88,57.3
28.845597600,40302,-4959.17,-554.62,57.3
28.845782900,40289,-4712.95,-546.03,57.3
28.866747600,40286,-4460.23,-535.03,57.3
28.866848000,40297,-4203.85,-522.47,57.3
28.885323000,40302,-3946.92,-508.73,57.3
28.885492300,40310,-3692.21,-493.55,57.3
28.905494300,40314,-3441.53,-476.48,57.3
28.905716300,40314,-3195.56,-457.40,57.3
28.925391700,40303,-2954.07,-436.68,57.3
28.925858600,40310,-2716.58,-415.01,57.3
28.945756200,40293,-2482.87,-393.40,57.3
28.945787000,40326,-2253.25,-373.03,57.3
28.965958000,40312,-2028.23,-354.17,57.3
28.965987800,40312,-1808.01,-336.09,57.3
28.985711900,40314,-1592.57,-318.54,57.3
28.985730500,40319,-1381.91,-302.65,57.3
29.007084300,40321,-1176.06,-290.42,57.3
29.007106900,40316,-974.93,-283.64,57.3
29.025438300,40321,-778.39,-283.28,57.3
29.025457300,40333,-586.34,-289.20,57.3
29.045877800,40333,-398.49,-300.21,57.3
29.045979800,40315,-214.20,-314.38,57.3
29.587792200,40317,-32.94,-330.01,57.3
29.587818500,40314,145.06,-346.10,57.3
29.587836700,40349,318.83,-362.02,57.3
29.587854100,40341,487.54,-377.05,57.3
29.587872000,40347,651.35,-390.68,57.3
29.587889500,40354,811.56,-402.65,57.3
29.587905600,40346,970.12,-412.58,57.3
29.587923000,40349,1129.17,-420.15,57.3
29.587940800,40365,1290.59,-425.18,57.3
29.587957800,40355,1456.00,-427.00,57.3
29.587974600,40353,1626.70,-424.94,57.3
29.587991000,40360,1803.47,-419.46,57.3
29.588007800,40383,1986.48,-411.80,57.3
29.588024800,40360,2175.73,-402.85,57.3
29.588041700,40368,2371.22,-392.94,57.3
29.588058300,40366,2572.60,-382.33,57.3
29.588085500,40349,2778.70,-371.52,57.3
29.588102200,40334,2987.25,-361.07,57.3
29.588277400,40336,3194.35,-351.13,57.3
29.588561100,40319,3394.44,-340.77,57.3
29.588605500,40316,3580.62,-327.36,57.3
29.588634400,40304,3745.17,-306.82,57.3
29.588660800,40276,3879.88,-274.70,57.3
29.588686900,40282,3976.15,-227.65,57.3
29.588712600,40289,4025.39,-164.18,57.3
29.588738600,40291,4020.06,-84.07,57.3
29.588764500,40282,3954.93,11.77,57.3
29.588791100,40277,3827.40,120.59,57.3
29.588816800,40280,3637.27,238.07,57.3
29.588842200,40267,3386.29,359.34,57.3
29.588867400,40274,3077.87,479.70,57.3
29.588893100,40279,2716.79,594.94,57.3
29.588923900,40270,2309.22,701.72,57.3
29.588949700,40284,1862.53,797.75,57.3
29.588975700,40257,1385.03,881.68,57.3
29.589001200,40251,885.19,952.90,57.3
29.589026400,40273,370.84,1011.28,57.3
29.589052500,40246,-151.01,1057.16,57.3
29.589077900,40241,-674.12,1091.12,57.3
29.589103700,40236,-1193.32,1113.43,57.3
29.589130800,40247,-1704.78,1124.46,57.2
29.589158700,40237,-2205.64,1125.60,57.2
29.589185000,40225,-2693.48,1118.85,57.2
29.589210800,40258,-3166.26,1105.28,57.2
29.589237300,40248,-3621.88,1084.78,57.2
29.589263200,40248,-4057.55,1056.95,57.2
29.589288200,40267,-4469.72,1021.39,57.2
29.589315300,40248,-4854.29,977.44,57.2
29.589340900,40245,-5207.03,924.64,57.2
29.589366600,40260,-5524.23,863.10,57.2
29.589391800,40232,-5803.16,793.23,57.2
29.589417200,40235,-6042.27,715.25,57.2
29.589442300,40238,-6241.60,629.67,57.2
29.606960800,40232,-6402.64,538.02,57.2
29.606994200,40247,-6527.81,442.96,57.2
29.625661900,40254,-6619.77,347.74,57.2
29.625832000,40240,-6680.80,255.81,57.2
29.647317000,40237,-6712.70,170.09,57.2
29.647553200,40242,-6717.33,92.24,57.2
29.666456500,40247,-6696.81,22.87,57.2
29.666490000,40240,-6653.32,-37.95,57.2
29.685543500,40240,-6588.92,-90.39,57.2
29.685717500,40242,-6505.71,-134.83,57.2
29.705443500,40248,-6405.79,-172.07,57.2
29.705666200,40252,-6291.07,-203.49,57.2
29.726689400,40243,-6163.04,-230.91,57.2
29.726721900,40245,-6022.84,-256.35,57.2
29.745958500,40237,-5871.70,-281.65,57.2
29.745980900,40242,-5711.13,-307.91,57.2
29.765509200,40242,-5543.02,-335.25,57.2
29.765598400,40260,-5369.27,-363.10,57.2
29.785354700,40252,-5191.31,-390.54,57.2
29.785449800,40267,-5009.74,-416.39,57.2
29.805648000,40261,-4824.32,-439.62,57.2
