RX Date/Time,MAX30100/1 raw,MAX30100/2 filter,MAX30100/3 restrurt,MAX30100/4 BPM,beat_event
0.0,44981,247.4,137.16,0.0,0
0.0002925,44999,2093.31,1023.35,0.0,0
0.0003112,44976,8837.69,3739.01,0.0,0
0.0003239,44950,25450.02,9209.89,0.0,0
0.000336,44948,57410.35,17719.13,0.0,0
0.0274676,44939,109663.48,28969.79,0.0,0
0.0274865,44961,185996.25,42319.77,0.0,0
0.0275009,44966,288730.06,56956.59,0.0,0
0.027515,44979,418639.94,72022.72,0.0,0
0.0275296,44966,575029.25,86701.97,0.0,0
0.0275424,44953,755904.06,100275.05,0.0,0
0.0275555,44963,958204.81,112151.09,0.0,0
0.0275685,44972,1178064.19,121882.09,0.0,0
0.0720054,44973,1411068.13,129165.08,0.0,0
0.0720289,44976,1652502.87,133834.26,0.0,0
0.4373685,44949,1897576.61,135846.54,0.0,0
0.4373923,44979,2141609.31,135263.97,0.0,0
0.4374076,44967,2380188.47,132234.85,0.0,0
0.4374227,44970,2609290.79,126974.84,0.0,0
0.4389393,44953,2825370.19,119748.37,0.0,0
0.4389602,44958,3025414.68,110851.37,0.0,0
0.4389761,44969,3206976.09,100596.1,0.0,0
0.4389925,44954,3368176.77,89298.74,0.0,0
0.4390062,44980,3507697.13,77268.96,0.0,0
0.4390203,44958,3624747.27,64801.13,0.0,0
0.4390342,44977,3719026.74,52167.24,0.0,0
0.4390483,44963,3790675.59,39611.96,0.0,0
0.4390621,44977,3840220.03,27349.54,0.0,0
0.4390761,44974,3868515.3,15562.66,0.0,0
0.4390895,44957,3876688.09,4402.23,0.0,0
0.4391035,44994,3866079.94,-6012.47,0.0,0
0.4391171,44972,3838193.65,-15592.69,0.0,0
0.4391305,44988,3794643.71,-24277.39,0.0,0
0.439144,44983,3737110.85,-32030.28,0.0,0
0.4391585,44999,3667301.53,-38837.0,0.0,0
0.4391727,44984,3586912.73,-44726.06,0.0,0
0.4391888,44979,3497601.83,-49824.2,0.0,0
0.4392077,44986,3400961.37,-54351.98,0.0,0
0.4392267,44990,3298499.12,-58513.38,0.0,0
0.4392461,44998,3191623.3,-62410.44,0.0,0
0.4392646,44997,3081632.29,-66052.72,0.0,0
0.4392828,44991,2969707.85,-69395.46,0.0,0
0.4393011,44978,2856911.16,-72367.43,0.0,0
0.4393193,44985,2744181.61,-74890.86,0.0,0
0.439338,45014,2632338.45,-76894.37,0.0,0
0.4393566,44987,2522085.3,-78320.28,0.0,0
0.4393748,45008,2414016.05,-79129.02,0.0,0
0.4393938,45020,2308621.59,-79301.49,0.0,0
0.4394123,45016,2206297.38,-78838.9,0.0,0
0.4394306,45036,2107351.8,-77761.12,0.0,1
0.4398283,45018,2012014.46,-76104.37,0.0,0
0.4398509,45025,1920444.18,-73918.23,0.0,0
0.439872,45016,1832736.75,-71262.46,0.0,0
0.4398906,45020,1748932.55,-68203.99,0.0,0
0.4648813,45000,1669024.1,-64814.08,0.0,0
0.464903,45007,1592963.28,-61165.69,0.0,0
0.4868076,45016,1520668.19,-57330.58,0.0,0
0.4868325,45000,1452030.06,-53376.73,0.0,0
0.4869383,44961,1386919.2,-49367.4,0.0,0
0.4869542,44954,1325189.4,-45361.26,0.0,0
0.5075978,44950,1266681.72,-41411.35,0.0,0
0.5077194,44903,1211228.52,-37563.49,0.0,0
0.5294401,44888,1158657.16,-33856.14,0.0,0
0.5294612,44872,1108792.91,-30321.26,0.0,0
0.5501541,44875,1061461.9,-26984.22,0.0,0
0.5501759,44862,1016494.53,-23863.42,0.0,0
0.5908082,44877,973728.52,-20970.52,0.0,0
0.5908308,44865,933011.37,-18311.24,0.0,0
0.5931573,44879,894201.95,-15886.13,0.0,0
0.5931778,44854,857171.21,-13691.79,0.0,0
0.6112629,44864,821801.97,-11722.09,0.0,0
0.6112818,44865,787988.23,-9968.84,0.0,0
0.6328996,44844,755634.44,-8422.0,0.0,0
0.632921,44849,724654.62,-7070.12,0.0,0
0.6460175,44832,694971.11,-5900.55,0.0,0
0.6463507,44833,666513.41,-4899.41,0.0,0
0.6664077,44840,639217.42,-4052.05,0.0,0
0.6665477,44800,613024.82,-3343.67,0.0,0
0.6911847,44814,587882.19,-2759.67,0.0,0
0.691203,44820,563740.16,-2285.9,0.0,0
0.7089991,44804,540553.17,-1908.5,0.0,0
0.709018,44799,518279.53,-1614.05,0.0,0
0.7263886,44795,496880.79,-1390.28,0.0,0
0.7265274,44792,476321.13,-1226.38,0.0,0
0.746542,44796,456567.09,-1112.91,0.0,0
0.7466555,44781,437587.51,-1041.52,0.0,0
0.7735425,44794,419353.27,-1004.7,0.0,0
0.7735611,44807,401837.29,-995.55,0.0,0
0.7913102,44804,385014.76,-1007.32,0.0,0
0.7913297,44788,368863.23,-1033.9,0.0,0
0.8061118,44777,353361.76,-1070.51,0.0,0
0.8080556,44785,338489.79,-1113.88,0.0,0
0.8267216,44780,324226.52,-1161.69,0.0,0
0.8267413,44767,310551.06,-1211.65,0.0,0
0.8459529,44766,297442.33,-1261.31,0.0,0
0.8463387,44785,284879.13,-1308.52,0.0,0
0.8668097,44761,272840.45,-1351.59,0.0,0
0.8668304,44784,261306.01,-1389.13,0.0,0
0.8860229,44784,250256.41,-1419.82,0.0,0
0.8861139,44791,239673.54,-1442.19,0.0,0
0.9138375,44781,229540.69,-1455.03,0.0,0
0.9139018,44788,219842.31,-1458.11,0.0,0
0.9315901,44803,210563.55,-1452.12,0.0,0
0.9316099,44792,201690.27,-1437.84,0.0,0
0.9497011,44782,193208.91,-1415.97,0.0,0
0.9497205,44792,185105.91,-1387.68,0.0,0
0.9673285,44793,177367.27,-1354.66,0.0,0
0.967347,44778,169978.66,-1318.52,0.0,0
0.9860995,44789,162925.4,-1280.63,0.0,0
0.9864727,44802,156192.58,-1241.96,0.0,0
1.0140986,44800,149765.55,-1202.63,0.0,0
1.0144478,44801,143630.52,-1161.99,0.0,0
1.0320018,44809,137774.57,-1119.47,0.0,0
1.0320216,44803,132185.52,-1075.26,0.0,0
1.2779953,44805,126851.78,-1030.16,0.0,0
1.2780124,44805,121762.03,-985.07,0.0,0
1.2780256,44809,116905.12,-940.67,0.0,0
1.278038,44803,112270.01,-897.39,0.0,0
1.2780499,44801,107845.77,-855.54,0.0,0
1.2780616,44813,103621.47,-815.38,0.0,0
1.2780739,44801,99586.35,-777.04,0.0,0
1.2780856,44792,95729.87,-740.84,0.0,0
1.2780974,44809,92041.53,-707.77,0.0,0
1.2781091,44823,88511.11,-678.75,0.0,0
1.2781206,44803,85129.28,-653.58,0.0,0
1.2781326,44818,81887.93,-631.36,0.0,0
1.2781442,44839,78779.97,-611.04,0.0,0
1.2781563,44813,75799.49,-591.6,0.0,0
1.2781684,44819,72941.58,-572.5,0.0,0
1.2781812,44833,70201.76,-554.05,0.0,0
1.2781928,44834,67575.69,-536.68,0.0,0
1.2782047,44823,65059.46,-520.26,0.0,0
1.2782174,44826,62649.32,-504.31,0.0,0
1.2782291,44819,60341.28,-488.72,0.0,0
1.2782409,44832,58130.78,-484.07,0.0,0
1.278253,44840,56013.06,-546.17,0.0,0
1.2782647,44822,53983.52,-799.82,0.0,0
1.2782766,44829,52037.89,-1392.37,0.0,0
1.2905581,44814,50171.71,-2412.4,0.0,0
1.2905757,44816,48380.03,-3858.71,0.0,0
1.3155713,44811,46657.34,-5662.14,0.0,0
1.3155906,44820,44997.69,-7715.67,0.0,0
1.3326834,44832,43395.35,-9896.22,0.0,0
1.3327021,44826,41845.43,-12080.12,0.0,0
1.3494718,44829,40344.37,-14153.88,0.0,0
1.349491,44833,38889.73,-16020.88,0.0,0
1.3679349,44842,37480.07,-17604.61,0.0,0
1.3679596,44837,36114.84,-18849.64,0.0,0
1.3865749,44841,34794.26,-19721.38,0.0,0
1.386594,44857,33519.07,-20204.41,0.0,1
1.4139838,44850,32290.46,-20299.93,0.0,0
1.4143925,44862,31110.03,-20023.05,0.0,0
1.4271311,44843,29979.56,-19400.5,0.0,0
1.4271491,44857,28900.42,-18468.19,0.0,0
1.4461071,44864,27873.23,-17268.18,0.0,0
1.446593,44858,26898.0,-15845.56,0.0,0
1.4663861,44857,25974.3,-14246.58,0.0,0
1.4664645,44847,25101.04,-12517.54,0.0,0
1.4902962,44874,24276.24,-10703.25,0.0,0
1.4903139,44851,23497.27,-8845.35,0.0,0
1.508982,44818,22760.98,-6981.61,0.0,0
1.5090015,44797,22062.79,-5146.13,0.0,0
1.5265079,44792,21395.48,-3369.07,0.0,0
1.5265684,44766,20748.99,-1675.48,0.0,0
1.5463949,44748,20111.15,-84.63,0.0,0
1.5464907,44739,19468.33,1389.24,0.0,0
1.5736382,44754,18806.43,2736.28,0.0,0
1.5736579,44738,18112.49,3950.87,0.0,0
1.5914523,44747,17376.1,5031.23,0.0,0
1.5914723,44719,16590.14,5978.43,0.0,0
1.60608,44713,15750.48,6795.08,0.0,0
1.606257,44718,14855.47,7484.54,0.0,0
1.6261208,44734,13905.73,8051.15,0.0,0
1.6263375,44715,12904.63,8500.87,0.0,0
1.6464505,44716,11858.35,8841.11,0.0,0
1.6466138,44711,10775.14,9080.16,0.0,0
1.6668441,44699,9664.43,9226.87,0.0,0
1.6668628,44697,8536.1,9290.33,0.0,0
1.6862052,44680,7399.78,9279.53,0.0,0
1.6864075,44687,6264.32,9203.33,0.0,0
1.7126267,44674,5137.62,9070.94,0.0,0
1.7130515,44661,4026.6,8891.74,0.0,0
1.731737,44655,2937.02,8674.56,0.0,0
1.7317563,44651,1873.28,8427.19,0.0,0
1.7488631,44653,838.57,8156.27,0.0,0
1.7488862,44660,-164.53,7867.53,0.0,0
1.7673264,44643,-1133.51,7566.15,0.0,0
1.7864086,44670,-2065.57,7256.85,0.0,0
1.7865031,44638,-2957.57,6943.81,0.0,0
1.8140186,44653,-3806.16,6630.39,0.0,0
1.8142813,44653,-4608.09,6319.02,0.0,0
1.862228,44636,-5360.39,6011.46,0.0,0
1.8622472,44648,-6060.54,5708.66,0.0,0
1.8622598,44645,-6706.64,5411.29,0.0,0
1.8622716,44653,-7297.25,5120.61,0.0,0
1.8729456,44650,-7831.14,4838.56,0.0,0
1.872965,44672,-8307.08,4567.13,0.0,0
1.8861451,44647,-8723.66,4308.07,0.0,0
1.8864412,44652,-9079.55,4062.66,0.0,0
1.9092197,44645,-9374.15,3831.45,0.0,0
1.9092398,44667,-9607.99,3614.67,0.0,0
1.9263774,44658,-9782.37,3412.78,0.0,0
1.9264019,44660,-9898.88,3226.33,0.0,0
1.9464911,44637,-9959.52,3055.14,0.0,0
1.9465105,44639,-9967.29,2898.05,0.0,0
1.9733621,44642,-9926.64,2753.1,0.0,0
1.9733819,44643,-9843.19,2618.03,0.0,0
1.9907109,44645,-9723.06,2490.77,0.0,0
1.9907301,44643,-9572.25,2369.7,0.0,0
2.0060091,44636,-9396.4,2253.71,0.0,0
2.0062425,44666,-9200.66,2142.53,0.0,0
2.0259274,44650,-8989.31,2036.66,0.0,0
2.026073,44635,-8765.52,1936.67,0.0,0
2.2868007,44645,-8531.9,1842.67,0.0,0
2.2868203,44640,-8291.08,1754.55,0.0,0
2.2868356,44641,-8045.81,1672.32,0.0,0
2.2868496,44653,-7798.65,1595.73,0.0,0
2.286863,44652,-7551.66,1524.17,0.0,0
2.286877,44652,-7306.06,1456.93,0.0,0
2.2868899,44662,-7062.28,1393.58,0.0,0
2.2869071,44654,-6820.04,1334.09,0.0,0
2.2869233,44639,-6578.71,1278.47,0.0,0
2.2869366,44656,-6337.9,1226.29,0.0,0
2.2869495,44629,-6097.82,1176.76,0.0,0
2.286963,44666,-5859.33,1128.99,0.0,0
2.2869769,44666,-5623.41,1082.49,0.0,0
2.2869898,44643,-5390.48,1037.35,0.0,0
2.2870026,44646,-5160.48,993.53,0.0,0
2.2870156,44653,-4933.61,950.34,0.0,0
2.2870291,44655,-4710.51,907.06,0.0,0
2.2870422,44659,-4491.82,863.5,0.0,0
2.2870552,44650,-4277.89,819.94,0.0,0
2.2870687,44663,-4068.8,776.81,0.0,0
2.2870814,44658,-3864.5,734.51,0.0,0
2.2870942,44677,-3664.65,669.46,0.0,0
2.2871075,44649,-3468.48,475.71,0.0,0
2.2871213,44650,-3275.16,-34.14,0.0,0
2.2879345,44654,-3084.49,-1021.01,0.0,0
2.2879537,44657,-2897.08,-2534.56,0.0,0
2.3091418,44636,-2714.07,-4523.75,0.0,0
2.3091636,44655,-2537.0,-6877.3,0.0,0
2.3281022,44653,-2367.7,-9453.83,0.0,0
2.3281308,44658,-2207.83,-12103.72,0.0,0
2.3461559,44654,-2058.41,-14684.54,0.0,0
2.3463224,44645,-1919.86,-17071.15,0.0,0
2.3743603,44659,-1792.35,-19161.34,0.0,0
2.3743847,44654,-1675.84,-20878.05,0.0,0
2.3913748,44656,-1570.02,-22168.93,0.0,0
2.3913968,44644,-1474.25,-23004.82,0.0,0
2.4062276,44646,-1387.97,-23377.57,0.0,0
2.4064917,44642,-1310.95,-23297.22,0.0,0
2.4274501,44655,-1243.31,-22788.95,0.0,0
2.4275531,44653,-1185.17,-21889.79,0.0,0
2.4459091,44660,-1136.15,-20645.5,0.0,0
2.4460764,44647,-1095.23,-19107.8,0.0,0
2.4684676,44648,-1061.1,-17331.57,0.0,0
2.4684882,44655,-1032.56,-15372.45,0.0,0
2.4860288,44670,-1008.45,-13284.85,0.0,1
2.486209,44660,-987.3,-11119.91,0.0,0
2.5148865,44662,-967.08,-8924.41,0.0,0
2.5149498,44666,-945.56,-6740.71,0.0,0
2.5323107,44654,-920.69,-4606.68,107.6,0
2.5323321,44670,-890.84,-2555.29,107.6,0
2.5544761,44652,-854.9,-613.98,107.6,0
2.5544943,44658,-812.38,1195.9,107.6,0
2.5687829,44646,-763.5,2858.9,107.6,0
2.5688106,44625,-709.51,4364.89,107.6,0
2.5865947,44599,-653.15,5708.54,107.6,0
2.5868144,44595,-599.36,6888.83,107.6,0
2.6163523,44580,-555.33,7908.18,107.6,0
2.61638,44565,-529.91,8771.53,107.6,0
2.6347817,44557,-532.81,9485.62,107.6,0
2.6348269,44540,-573.93,10058.86,107.6,0
2.6488186,44549,-662.65,10500.88,107.6,0
2.6488536,44570,-806.81,10822.15,107.6,0
2.6678448,44561,-1011.35,11034.17,107.6,0
2.6678845,44545,-1277.45,11149.19,107.6,0
2.6920338,44549,-1603.01,11178.8,107.6,0
2.6920619,44547,-1983.65,11133.29,107.6,0
2.7101423,44554,-2413.24,11022.03,107.6,0
2.7101766,44526,-2884.17,10853.93,107.6,0
2.7290855,44550,-3387.97,10637.18,107.6,0
2.7291349,44534,-3915.87,10379.22,107.6,0
2.7494907,44519,-4459.06,10086.97,107.6,0
2.7495357,44534,-5009.2,9766.66,107.6,0
2.7772958,44520,-5558.75,9424.09,107.6,0
2.7773321,44508,-6101.05,9065.21,107.6,0
2.7931007,44481,-6630.64,8695.76,107.6,0
2.7931196,44496,-7143.94,8320.5,107.6,0
2.8064174,44479,-7639.34,7943.33,107.6,0
2.8065181,44493,-8116.52,7567.8,107.6,0
2.826915,44505,-8575.51,7197.21,107.6,0
2.827189,44506,-9015.7,6834.72,107.6,0
2.8463792,44489,-9435.19,6483.05,107.6,0
2.8465564,44496,-9831.2,6143.89,107.6,0
2.8698519,44484,-10200.8,5817.81,107.6,0
2.8698765,44501,-10541.35,5505.0,107.6,0
2.8923471,44507,-10850.37,5205.95,107.6,0
2.8923995,44503,-11125.18,4921.66,107.6,0
2.9141016,44500,-11362.76,4653.2,107.6,0
2.9141219,44499,-11560.22,4401.13,107.6,0
2.9328752,44494,-11715.33,4165.34,107.6,0
2.9328946,44481,-11826.92,3945.04,107.6,0
2.9505767,44477,-11895.27,3738.83,107.6,0
2.9505967,44470,-11922.34,3544.95,107.6,0
2.9691692,44457,-11911.81,3361.86,107.6,0
2.9691996,44453,-11868.87,3188.35,107.6,0
2.986285,44447,-11799.96,3023.31,107.6,0
2.9863052,44468,-11712.16,2865.79,107.6,0
3.0148386,44469,-11612.17,2715.54,107.6,0
3.0149344,44464,-11505.19,2573.3,107.6,0
3.0327531,44489,-11394.48,2439.75,107.6,0
3.0327715,44481,-11281.31,2314.93,107.6,0
3.2940672,44468,-11165.05,2198.54,107.6,0
3.2940854,44459,-11044.06,2089.96,107.6,0
3.2940992,44450,-10916.96,1987.63,107.6,0
3.2941121,44473,-10783.27,1889.53,107.6,0
3.2941251,44490,-10643.05,1794.56,107.6,0
3.2941384,44493,-10495.68,1703.24,107.6,0
3.2941512,44512,-10339.07,1617.0,107.6,0
3.2941636,44498,-10169.57,1537.05,107.6,0
3.2941763,44518,-9982.59,1463.72,107.6,0
3.2941892,44529,-9773.17,1396.75,107.6,0
3.2942014,44530,-9536.28,1335.91,107.6,0
3.2942139,44545,-9266.91,1281.02,107.6,0
3.2942262,44539,-8960.41,1231.57,107.6,0
3.2942394,44537,-8612.99,1186.72,107.6,0
3.2942518,44551,-8222.3,1145.37,107.6,0
3.2942641,44537,-7787.71,1106.41,107.6,0
3.2942766,44564,-7310.29,1069.09,107.6,0
3.2942964,44571,-6792.36,1033.18,107.6,0
3.2943106,44566,-6236.85,998.86,107.6,0
3.2943239,44569,-5647.02,966.34,107.6,0
3.2943372,44587,-5026.6,914.9,107.6,0
3.2943501,44577,-4379.74,750.96,107.6,0
3.294363,44571,-3710.97,306.24,107.6,0
3.2943768,44546,-3025.61,-568.63,107.6,0
3.29439,44568,-2330.48,-1925.62,107.6,0
3.314459,44574,-1633.82,-3723.95,107.6,0
3.3144764,44568,-944.24,-5865.23,107.6,0
3.3331275,44562,-269.87,-8221.74,107.6,0
3.3331467,44564,381.78,-10657.16,107.6,0
3.3498496,44548,1003.62,-13040.6,107.6,0
3.3498687,44560,1588.91,-15256.04,107.6,0
3.3684376,44565,2131.48,-17208.01,107.6,0
3.3684571,44558,2626.24,-18823.88,107.6,0
3.3863625,44561,3069.56,-20053.67,107.6,0
3.3882084,44567,3459.25,-20868.83,107.6,0
3.4169942,44572,3794.55,-21260.18,107.6,0
3.4172652,44575,4076.29,-21235.2,107.6,0
3.4343538,44572,4306.82,-20815.26,107.6,0
3.4343733,44569,4489.65,-20032.99,107.6,0
3.446044,44569,4628.9,-18929.54,107.6,0
3.4461547,44563,4728.72,-17551.84,107.6,0
3.4662856,44565,4793.03,-15950.19,107.6,0
3.466382,44579,4825.42,-14176.13,107.6,0
3.4898627,44567,4829.38,-12280.12,107.6,1
3.4898819,44584,4808.57,-10309.8,107.6,0
3.508106,44556,4766.78,-8308.98,107.6,0
3.5081258,44588,4707.58,-6316.9,107.6,0
3.5262878,44571,4634.28,-4367.85,107.6,0
3.5263076,44571,4550.0,-2490.8,107.6,0
3.5463644,44590,4457.63,-709.8,107.6,0
3.5463835,44570,4359.88,955.86,107.6,0
3.5728838,44569,4259.18,2491.44,107.6,0
3.5729201,44565,4157.36,3886.17,107.5,0
3.5907344,44556,4055.19,5133.23,107.3,0
3.5907534,44554,3952.3,6229.96,106.8,0
3.6068316,44526,3847.18,7177.11,106.1,0
3.6068523,44500,3736.79,7977.8,105.3,0
3.625904,44477,3615.94,8637.37,104.4,0
3.6261353,44452,3476.82,9163.4,103.2,0
3.646215,44427,3309.08,9564.91,101.9,0
3.6463682,44413,3100.41,9851.93,100.5,0
3.6668,44407,2837.53,10035.67,99.0,0
3.6668206,44406,2507.69,10128.33,97.4,0
3.6861033,44380,2100.14,10142.04,95.7,0
3.6862888,44376,1607.0,10087.79,93.9,0
3.7134543,44381,1023.51,9975.41,92.0,0
3.7135871,44384,348.42,9814.21,90.1,0
3.7310026,44388,-415.48,9613.3,88.2,0
3.7310224,44361,-1261.23,9380.97,86.4,0
3.749577,44343,-2178.69,9123.86,84.5,0
3.7495959,44336,-3156.25,8846.86,82.6,0
3.7669059,44294,-4182.33,8553.86,80.8,0
3.7669265,44306,-5246.4,8248.29,79.1,0
3.7859044,44286,-6339.37,7933.39,77.5,0
3.7859957,44281,-7453.3,7612.62,76.0,0
3.8131688,44245,-8581.06,7289.47,74.6,0
3.8132681,44241,-9716.52,6967.23,73.3,0
3.8680486,44214,-10854.96,6648.9,72.1,0
3.8680662,44194,-11993.09,6337.11,71.2,0
3.8680795,44210,-13128.92,6034.02,70.4,0
3.8680919,44172,-14261.09,5741.77,69.7,0
3.8681047,44143,-15388.35,5462.23,69.2,0
3.8681176,44116,-16510.01,5195.95,69.0,0
3.8912884,44114,-17626.64,4942.23,68.9,0
3.8913087,44072,-18739.99,4700.18,68.9,0
3.9094169,44040,-19852.68,4469.02,68.9,0
3.9094354,44017,-20968.4,4247.86,68.9,0
3.9262269,43973,-22092.1,4035.87,68.9,0
3.9262454,43937,-23230.03,3832.6,68.9,0
3.9458775,43901,-24389.73,3637.62,68.9,0
3.9466776,43883,-25579.82,3450.54,68.9,0
3.9739473,43853,-26809.16,3271.36,68.9,0
3.9739645,43822,-28085.82,3100.41,68.9,0
3.9918259,43801,-29416.32,2937.81,68.9,0
3.9918435,43812,-30805.06,2783.09,68.9,0
4.0063916,43797,-32253.14,2635.46,68.9,0
4.0065326,43817,-33757.17,2494.23,68.9,0
4.0265111,43817,-35308.37,2358.86,68.9,0
4.0265888,43835,-36892.28,2228.7,68.9,0
4.2722793,43831,-38489.07,2103.08,68.9,0
4.2722977,43831,-40074.6,1981.74,68.9,0
4.2723128,43840,-41622.14,1864.7,68.9,0
4.2723261,43816,-43104.15,1751.86,68.9,0
4.2723402,43814,-44494.15,1642.98,68.9,0
4.2723533,43797,-45768.59,1537.5,68.9,0
4.2723661,43785,-46908.22,1434.77,68.9,0
4.272378,43783,-47898.86,1334.35,68.9,0
4.2723899,43776,-48731.44,1236.32,68.9,0
4.2724024,43769,-49401.51,1141.46,68.9,0
4.2724155,43740,-49908.8,1051.02,68.9,0
4.272428,43729,-50257.01,966.3,68.9,0
4.2724407,43700,-50453.96,888.4,68.9,0
4.2724526,43678,-50511.46,818.14,68.9,0
4.2724647,43680,-50444.83,755.79,68.9,0
4.2724769,43677,-50271.78,701.03,68.9,0
4.2724892,43672,-50010.62,653.42,68.9,0
4.2725015,43677,-49678.66,612.68,68.9,0
4.2725171,43663,-49291.12,578.51,68.9,0
4.2725292,43686,-48860.61,550.38,68.9,0
4.2725412,43678,-48396.7,504.34,68.9,0
4.2725528,43660,-47905.85,336.56,68.9,0
4.2726396,43658,-47392.03,-135.5,68.9,0
4.2726525,43645,-46857.86,-1068.27,68.9,0
4.2860923,43634,-46305.47,-2510.13,68.9,0
4.2863582,43625,-45737.07,-4412.12,68.9,0
4.3082978,43615,-45155.29,-6667.27,68.9,0
4.3083186,43617,-44563.23,-9139.24,68.9,0
4.3263526,43594,-43964.27,-11683.22,68.9,0
4.3263811,43594,-43361.93,-14161.0,68.9,0
4.3467136,43585,-42759.9,-16451.01,68.9,0
4.3470495,43600,-42161.76,-18453.7,68.9,0
4.3727497,43580,-41570.37,-20093.67,68.9,0
4.3727685,43581,-40987.56,-21320.63,68.9,0
4.3899416,43595,-40414.1,-22108.32,68.9,0
4.3899613,43604,-39849.57,-22451.18,68.9,0
4.4061116,43585,-39291.92,-22360.69,68.9,0
4.4062917,43593,-38737.67,-21862.39,68.9,0
4.4262807,43596,-38182.65,-20993.03,68.9,0
4.4264765,43597,-37622.4,-19797.09,68.9,0
4.4460114,43606,-37052.3,-18323.65,68.9,0
4.4460869,43612,-36467.49,-16623.65,68.9,0
4.4674391,43571,-35863.21,-14748.31,68.9,0
4.4674597,43575,-35235.76,-12748.37,68.9,0
4.4858961,43592,-34583.47,-10672.7,68.9,0
4.4862593,43568,-33906.71,-8566.59,68.9,0
4.5058577,43575,-33207.2,-6471.05,68.9,0
4.530823,43586,-32487.67,-4422.55,68.9,0
4.5308424,43572,-31751.35,-2451.95,68.9,0
4.5491752,43583,-31001.56,-584.35,68.9,0
4.5491939,43563,-30241.49,1160.34,68.9,0
4.5670441,43569,-29474.47,2766.87,68.9,0
4.5670641,43562,-28704.07,4224.33,68.8,0
4.5862389,43552,-27934.18,5525.96,68.8,0
4.5864246,43535,-27169.07,6669.01,68.7,0
4.6140872,43518,-26413.77,7654.27,68.6,0
4.6141062,43500,-25674.47,8485.43,68.4,0
4.6260204,43491,-24958.72,9168.31,68.3,1
4.6261325,43547,-24274.82,9710.66,68.1,0
4.6460382,43591,-23629.56,10123.1,67.9,0
4.6462219,43634,-23024.95,10419.13,67.7,0
4.6661917,43599,-22456.21,10613.08,67.5,0
4.6663401,43586,-21912.86,10717.56,67.3,0
4.6909572,43530,-21382.58,10743.07,67.0,0
4.6909765,43487,-20855.57,10698.97,66.8,0
4.7079352,43450,-20327.92,10594.59,66.5,0
4.7079555,43423,-19803.24,10439.53,66.3,0
4.7257887,43383,-19292.27,10243.53,66.0,0
4.7259467,43375,-18811.39,10016.09,65.8,0
4.7463416,43346,-18380.5,9765.86,65.5,0
4.7465388,43343,-18020.68,9499.96,65.3,0
4.772707,43317,-17751.94,9223.77,65.1,0
4.772727,43272,-17591.78,8941.21,64.9,0
4.7901545,43223,-17555.05,8654.78,64.6,0
4.7901739,43174,-17654.85,8365.62,64.5,0
4.8063381,43071,-17903.93,8073.42,64.3,0
4.8064347,43001,-18316.35,7776.31,64.1,0
4.8264339,42925,-18909.0,7471.44,64.0,0
4.8264541,42873,-19701.88,7156.42,63.9,0
4.8460886,42827,-20716.62,6830.15,63.8,0
4.8461732,42813,-21973.71,6493.1,63.8,0
4.8678858,42778,-23489.32,6147.64,63.7,0
4.8679055,42772,-25272.29,5797.88,63.7,0
4.8859621,42736,-27322.37,5448.59,63.7,0
4.8861405,42732,-29629.59,5104.21,63.7,0
4.9067356,42728,-32174.55,4768.7,63.7,0
4.9067692,42710,-34929.02,4446.03,63.7,0
4.9323675,42684,-37857.17,4139.71,63.7,0
4.93239,42700,-40917.54,3851.67,63.7,0
4.9499349,42681,-44064.89,3582.27,63.7,0
4.9499547,42660,-47251.85,3331.07,63.7,0
4.9679485,42675,-50430.63,3096.96,63.7,0
4.9679687,42674,-53554.61,2878.64,63.7,0
4.9862319,42666,-56579.16,2675.39,63.7,0
4.9863199,42657,-59462.41,2486.75,63.7,0
5.0148427,42657,-62166.48,2312.18,63.7,0
5.0151095,42637,-64658.53,2150.82,63.7,0
5.0271082,42653,-66911.47,2001.26,63.7,0
5.0271273,42640,-68904.2,1861.9,63.7,0
5.2724847,42628,-70621.37,1731.63,63.7,0
5.2725019,42641,-72053.28,1609.72,63.7,0
5.2725151,42630,-73195.63,1495.81,63.7,0
5.2725278,42623,-74048.89,1390.02,63.7,0
5.2725404,42624,-74617.86,1292.66,63.7,0
5.2725528,42623,-74911.28,1203.85,63.7,0
5.2725647,42619,-74941.17,1123.52,63.7,0
5.2725763,42624,-74722.08,1051.52,63.7,0
5.2725877,42603,-74270.54,987.78,63.7,0
5.2725992,42636,-73604.61,932.22,63.7,0
5.2726107,42604,-72743.24,884.83,63.7,0
5.272623,42610,-71705.79,845.4,63.7,0
5.2726345,42608,-70511.95,812.98,63.7,0
5.2726463,42601,-69181.61,786.35,63.7,0
5.2726577,42611,-67734.53,765.01,63.7,0
5.272669,42594,-66189.88,749.22,63.7,0
5.2726802,42608,-64565.97,739.13,63.7,0
5.2726917,42588,-62880.08,734.18,63.7,0
5.272703,42597,-61148.44,733.27,63.7,0
5.272715,42596,-59386.11,735.3,63.7,0
5.2727264,42588,-57606.88,738.79,63.7,0
5.272738,42594,-55823.08,721.43,63.7,0
5.2727495,42591,-54045.6,594.52,63.7,0
5.2727612,42580,-52283.87,206.99,63.7,0
5.2859497,42560,-50546.2,-568.32,63.7,0
5.2861089,42552,-48840.48,-1769.75,63.7,0
5.3059432,42575,-47174.58,-3356.0,63.7,0
5.3140047,42575,-45555.83,-5237.08,63.7,0
5.3321911,42562,-43989.94,-7297.69,63.7,0
5.3322092,42566,-42480.68,-9416.02,63.7,0
5.3487967,42557,-41030.32,-11477.22,63.7,0
5.3488153,42559,-39640.06,-13381.0,63.7,0
5.3672553,42549,-38310.24,-15045.59,63.7,0
5.3672735,42555,-37040.57,-16409.63,63.7,0
5.3872728,42556,-35830.18,-17432.11,63.7,0
5.3872923,42554,-34677.48,-18091.06,63.7,0
5.4139194,42550,-33580.13,-18381.67,63.7,0
5.4140752,42559,-32535.19,-18313.68,63.7,0
5.4320714,42549,-31539.24,-17908.17,63.7,0
5.4321091,42556,-30588.49,-17194.54,63.7,0
5.4460159,42548,-29678.97,-16208.62,63.7,0
5.4460931,42536,-28806.85,-14991.1,63.7,0
5.4663277,42540,-27968.82,-13585.89,63.7,0
5.4664137,42536,-27162.4,-12038.11,63.7,0
5.4903676,42553,-26385.71,-10391.81,63.7,0
5.4903892,42539,-25636.93,-8688.31,63.7,0
5.5080976,42540,-24914.06,-6965.23,63.7,0
5.5081159,42542,-24215.0,-5256.19,63.7,0
5.5259861,42550,-23537.73,-3590.43,63.7,0
5.5261254,42550,-22880.12,-1992.61,63.7,0
5.5463563,42576,-22239.52,-482.77,63.7,0
5.5465253,42573,-21612.46,924.01,63.7,0
5.5727529,42556,-20994.51,2217.12,63.7,0
5.572777,42572,-20380.96,3389.15,63.7,0
5.5912541,42579,-19767.61,4435.2,63.7,0
5.591274,42582,-19150.82,5353.06,63.6,0
5.6098938,42571,-18527.34,6143.16,63.6,0
5.6099265,42581,-17894.61,6808.13,63.5,0
5.626206,42593,-17251.03,7352.71,63.5,0
5.6262894,42585,-16595.79,7783.96,63.4,0
5.6563395,42573,-15928.67,8110.6,63.3,0
5.6564344,42597,-15250.38,8341.57,63.2,0
5.6671657,42576,-14562.64,8485.41,63.1,0
5.6671843,42607,-13867.82,8550.88,62.9,1
5.6858367,42588,-13168.56,8547.47,62.8,0
5.6860455,42595,-12467.47,8484.86,62.7,0
5.7060462,42589,-11767.28,8371.95,62.6,0
5.7133017,42578,-11071.1,8216.68,62.4,0
5.7312725,42578,-10382.72,8026.3,62.3,0
5.7312925,42551,-9706.83,7807.85,62.1,0
5.7504078,42529,-9049.45,7568.71,62.0,0
5.7504268,42511,-8418.4,7316.47,61.9,0
5.7665613,42492,-7823.63,7058.38,61.7,0
5.7665813,42471,-7276.88,6801.22,61.6,0
5.7859813,42446,-6791.16,6550.71,61.5,0
5.7861384,42436,-6380.12,6311.12,61.4,0
5.8058431,42422,-6057.26,6085.17,61.3,0
5.8136811,42461,-5834.61,5874.19,61.2,0
5.8628698,42430,-5720.95,5678.62,61.1,0
5.8628899,42434,-5720.47,5498.14,61.0,0
5.8629045,42450,-5832.74,5331.4,61.0,0
5.8727046,42446,-6052.88,5176.43,60.9,0
5.8727245,42442,-6371.85,5030.96,60.9,0
5.8861595,42441,-6777.18,4892.14,60.8,0
5.8863941,42437,-7254.2,4756.68,60.8,0
5.9079405,42419,-7787.16,4621.69,60.8,0
5.9079631,42417,-8360.45,4485.11,60.8,0
5.9260127,42424,-8959.52,4346.03,60.8,0
5.9261998,42413,-9571.13,4204.62,60.8,0
5.9458359,42405,-10183.35,4061.56,60.8,0
5.9461449,42403,-10785.76,3917.63,60.8,0
5.9724504,42408,-11369.63,3773.54,60.8,0
5.9724678,42396,-11927.74,3630.05,60.8,0
5.9905096,42387,-12454.24,3487.81,60.8,0
5.9905381,42397,-12944.69,3347.25,60.8,0
6.006058,42392,-13395.96,3208.77,60.8,0
6.0062427,42394,-13805.78,3072.42,60.8,0
6.0262692,42377,-14172.49,2937.5,60.8,0
6.0262876,42400,-14495.05,2802.89,60.8,0
6.3523997,42371,-14773.04,2667.74,60.8,0
6.3524202,42393,-15006.52,2532.12,60.8,0
6.3524345,42377,-15196.03,2396.78,60.8,0
6.3524487,42378,-15342.45,2262.48,60.8,0
6.3524613,42377,-15447.09,2129.55,60.8,0
6.3524741,42383,-15511.63,1998.28,60.8,0
6.3524866,42376,-15537.91,1869.32,60.8,0
6.3524992,42374,-15527.79,1743.74,60.8,0
6.3525121,42370,-15483.27,1622.59,60.8,0
6.3525248,42388,-15406.55,1506.58,60.8,0
6.3525383,42353,-15299.85,1396.14,60.8,0
6.3525516,42354,-15165.65,1291.18,60.8,0
6.3525663,42376,-15007.07,1191.08,60.8,0
6.352579,42368,-14827.61,1095.52,60.8,0
6.3525919,42355,-14630.45,1005.19,60.8,0
6.3526078,42368,-14418.31,920.96,60.8,0
6.3526261,42373,-14193.63,842.95,60.8,0
6.352639,42376,-13958.27,770.63,60.8,0
6.3526594,42354,-13713.29,703.44,60.8,0
6.3526721,42377,-13459.31,640.95,60.8,0
6.3526849,42380,-13196.84,582.95,60.8,0
6.3526981,42375,-12925.96,505.42,60.8,0
6.3527165,42376,-12646.23,297.85,60.8,0
6.3528804,42371,-12357.05,-242.23,60.8,0
6.3528983,42368,-12058.07,-1298.83,60.8,0
6.3529115,42365,-11749.56,-2939.82,60.8,0
6.352924,42354,-11432.57,-5118.82,60.8,0
6.352957,42354,-11109.11,-7717.74,60.8,0
6.3529729,42345,-10782.13,-10581.89,60.8,0
6.3529854,42356,-10455.36,-13545.39,60.8,0
6.3533184,42355,-10132.73,-16448.84,60.8,0
6.3533359,42360,-9817.77,-19150.62,60.8,0
6.3752247,42379,-9512.98,-21533.25,60.8,0
6.3752447,42356,-9219.47,-23506.15,60.8,0
6.3918642,42349,-8937.18,-25006.63,60.8,0
6.3918844,42354,-8665.75,-25999.37,60.8,0
6.4065194,42353,-8405.15,-26473.59,60.8,0
6.4066877,42350,-8155.58,-26439.04,60.8,0
6.4258474,42352,-7917.26,-25922.38,60.8,0
6.4264819,42351,-7690.39,-24964.03,60.8,0
6.4460237,42348,-7475.0,-23614.55,60.8,0
6.4463732,42349,-7271.02,-21930.72,60.8,0
6.4678928,42372,-7078.13,-19972.49,60.8,0
6.4679134,42364,-6895.38,-17800.58,60.8,0
6.4857961,42349,-6720.88,-15474.69,60.8,0
6.4859775,42360,-6552.38,-13052.4,60.8,0
6.5058408,42361,-6387.86,-10588.18,60.8,0
6.5140947,42351,-6225.65,-8131.87,60.8,0
6.5330017,42365,-6064.39,-5727.46,60.8,0
6.5330219,42353,-5903.02,-3412.42,60.8,0
6.5495352,42355,-5740.83,-1217.68,60.8,0
6.5495555,42364,-5577.42,832.2,60.8,0
6.5665458,42356,-5412.65,2718.85,60.8,0
6.5665664,42360,-5246.46,4429.95,60.8,0
6.5858812,42358,-5078.91,5958.77,60.8,1
6.5859832,42359,-4910.16,7303.62,60.9,0
6.614565,42352,-4740.58,8467.13,60.9,0
6.614851,42365,-4570.73,9455.05,60.9,0
6.6325621,42360,-4401.24,10275.02,60.9,0
6.6325833,42354,-4232.65,10936.19,60.9,0
6.6460228,42330,-4065.62,11448.99,60.9,0
6.6463433,42312,-3901.73,11824.55,60.9,0
6.6659276,42289,-3744.42,12074.38,60.9,0
6.666263,42276,-3599.53,12210.98,60.9,0
6.6908836,42272,-3475.14,12248.52,60.9,0
6.6909032,42243,-3380.76,12202.29,60.9,0
6.7085619,42236,-3326.57,12087.66,61.0,0
6.7085821,42213,-3322.85,11919.06,61.0,0
6.7265048,42202,-3379.53,11708.83,61.0,0
6.7265249,42205,-3505.68,11466.54,61.0,0
6.7459479,42196,-3708.6,11199.29,61.0,0
6.7464702,42190,-3992.97,10912.93,61.0,0
6.7729076,42188,-4360.44,10612.5,61.0,0
6.7729273,42193,-4809.53,10302.04,61.0,0
6.7916703,42185,-5335.63,9984.46,61.0,0
6.7916908,42175,-5931.24,9661.5,61.1,0
6.8059184,42181,-6586.66,9333.8,61.1,0
6.8064223,42177,-7290.69,9001.68,61.1,0
6.8259165,42170,-8031.08,8665.88,61.1,0
6.826118,42153,-8795.08,8327.75,61.1,0
6.8458379,42158,-9570.37,7988.92,61.1,0
6.8460428,42128,-10345.75,7651.31,61.1,0
6.868548,42127,-11111.69,7316.9,61.1,0
6.8685686,42132,-11860.69,6987.25,61.1,0
6.8859538,42133,-12586.89,6663.72,61.1,0
6.8860528,42124,-13285.31,6347.78,61.1,0
6.9059903,42123,-13951.42,6040.6,61.1,0
6.9134743,42114,-14581.16,5742.68,61.1,0
6.9323586,42117,-15171.1,5453.67,61.1,0
6.9323773,42117,-15718.42,5172.58,61.1,0
6.9503018,42122,-16220.67,4898.78,61.1,0
6.9503206,42115,-16675.54,4632.72,61.1,0
6.9674697,42127,-17080.69,4375.68,61.1,0
6.9674879,42110,-17433.89,4128.97,61.1,0
6.9863362,42101,-17733.27,3893.1,61.1,0
6.9863574,42106,-17977.9,3667.6,61.1,0
7.0056931,42106,-18168.07,3451.59,61.1,0
7.0134784,42102,-18305.0,3244.19,61.1,0
7.0260226,42109,-18390.44,3044.59,61.1,0
7.0261738,42086,-18426.55,2852.32,61.1,0
7.2907285,42078,-18416.11,2667.29,61.1,0
7.2907475,42069,-18363.02,2489.5,61.1,0
7.2907613,42102,-18272.37,2319.31,61.1,0
7.2907744,42090,-18149.49,2157.91,61.1,0
7.2907873,42090,-17998.87,2006.73,61.1,0
7.2908001,42091,-17823.84,1866.36,61.1,0
7.2908124,42089,-17626.91,1736.72,61.1,0
7.2908254,42086,-17410.06,1617.41,61.1,0
7.290839,42094,-17174.85,1507.64,61.1,0
7.290852,42082,-16922.63,1406.59,61.1,0
7.2908646,42081,-16654.58,1313.85,61.1,0
7.2908772,42093,-16372.0,1228.94,61.1,0
7.2908905,42078,-16076.26,1150.96,61.1,0
7.2909037,42089,-15768.69,1078.71,61.1,0
7.2909163,42093,-15450.52,1011.31,61.1,0
7.2909294,42086,-15122.77,948.67,61.1,0
7.2909425,42078,-14786.2,890.8,61.1,0
7.2909551,42085,-14441.7,836.84,61.1,0
7.290968,42085,-14090.49,785.51,61.1,0
7.2909804,42072,-13734.01,735.92,61.1,0
7.2909926,42076,-13373.92,668.7,61.1,0
7.2910058,42078,-13012.24,498.91,61.1,0
7.2910191,42074,-12651.15,77.03,61.1,0
7.2910327,42078,-12292.77,-724.74,61.1,0
7.2910457,42083,-11938.91,-1945.62,61.1,0
7.3142429,42083,-11590.87,-3544.7,61.1,0
7.3142618,42076,-11249.32,-5432.82,61.1,0
7.3325702,42083,-10914.48,-7497.11,61.1,0
7.3325975,42092,-10586.27,-9618.66,61.1,0
7.3501326,42083,-10264.19,-11683.98,61.1,0
7.3501529,42078,-9947.4,-13592.86,61.1,0
7.3681214,42061,-9635.17,-15263.63,61.1,0
7.3681405,42098,-9327.49,-16635.25,61.1,0
7.3863604,42083,-9024.68,-17666.36,61.1,0
7.3863811,42081,-8726.82,-18333.76,61.1,0
7.4151065,42071,-8433.71,-18631.64,61.1,0
7.4157524,42075,-8145.44,-18569.64,61.1,0
7.4265054,42071,-7862.65,-18169.17,61.1,0
7.4265243,42082,-7586.41,-17460.22,61.1,0
7.4460126,42080,-7317.77,-16479.16,61.1,0
7.4463177,42086,-7057.34,-15266.69,61.1,0
7.4659225,42093,-6805.11,-13865.78,61.1,0
7.4661542,42088,-6560.33,-12319.64,61.1,0
7.4906234,42095,-6321.62,-10670.26,61.1,0
7.4906438,42070,-6087.36,-8958.0,61.1,0
7.5088315,42097,-5856.23,-7221.09,61.1,0
7.5088494,42088,-5627.41,-5494.22,61.1,0
7.5259985,42095,-5400.31,-3807.5,61.1,0
7.5260202,42101,-5174.25,-2186.49,61.1,0
7.5463007,42109,-4948.29,-652.03,61.1,1
7.5463196,42110,-4721.07,779.83,61.1,0
7.5726781,42100,-4490.87,2097.04,61.1,0
7.5727032,42097,-4256.11,3290.62,61.1,0
7.5897941,42090,-4016.0,4354.8,61.1,0
7.5898137,42080,-3771.05,5287.71,61.1,0
7.6060577,42043,-3523.44,6091.69,61.1,0
7.6062209,42046,-3277.56,6772.69,61.0,0
7.6258026,42032,-3040.24,7339.43,61.0,0
7.6263224,42002,-2820.25,7802.72,61.0,0
7.6461082,41976,-2627.87,8174.29,61.0,0
7.6461894,41743,-2476.03,8464.06,61.0,0
7.6669917,41747,-2384.08,8676.18,60.9,0
7.6670136,41742,-2380.52,8809.36,60.9,0
7.6857661,41741,-2500.06,8862.8,60.9,0
7.6860608,41722,-2776.83,8840.15,60.8,0
7.7066105,41734,-3238.98,8748.78,60.8,0
7.7067944,41734,-3905.67,8597.78,60.8,0
7.7316645,41731,-4785.37,8396.59,60.7,0
7.7316865,41739,-5875.58,8154.56,60.7,0
7.7493222,41709,-7163.66,7881.19,60.7,0
7.7493414,41720,-8628.8,7586.01,60.6,0
7.7669607,41708,-10244.22,7277.79,60.6,0
7.7669799,41707,-11979.16,6964.19,60.6,0
7.7911632,41695,-13800.47,6651.56,60.5,0
7.7911895,41675,-15674.41,6344.68,60.5,0
7.814701,41666,-17568.34,6047.29,60.5,0
7.8149582,41670,-19452.19,5762.7,60.5,0
7.8633818,41662,-21298.98,5493.64,60.4,0
7.8634124,41661,-23084.77,5242.26,60.4,0
7.8634457,41666,-24788.58,5010.41,60.4,0
7.8634578,41654,-26392.22,4799.24,60.4,0
7.8728331,41651,-27880.31,4608.36,60.4,0
7.8728508,41661,-29240.4,4435.58,60.4,0
7.8860336,41655,-30462.86,4277.77,60.4,0
7.8863012,41657,-31540.51,4131.46,60.4,0
7.90806,41651,-32468.47,3992.95,60.4,0
7.9080833,41646,-33244.21,3858.66,60.4,0
7.9264169,41663,-33867.52,3725.88,60.4,0
7.9264374,41648,-34340.23,3593.03,60.4,0
7.9459495,41631,-34665.89,3459.64,60.4,0
7.9461186,41650,-34850.0,3325.82,60.4,0
7.9732379,41637,-34899.97,3191.83,60.4,0
7.9732627,41635,-34824.61,3058.04,60.4,0
7.9910374,41637,-34633.77,2924.88,60.4,0
7.9910574,41628,-34338.03,2792.9,60.4,0
8.0064195,41631,-33948.48,2662.53,60.4,0
8.0066002,41637,-33476.39,2533.92,60.4,0
8.0262863,41627,-32932.77,2407.14,60.4,0
8.0263046,41623,-32328.15,2282.31,60.4,0
8.3494017,41615,-31672.66,2159.32,60.4,0
8.3494198,41631,-30976.18,2037.75,60.4,0
8.3494334,41636,-30247.97,1917.27,60.4,0
8.3494464,41622,-29496.07,1797.91,60.4,0
8.3494587,41626,-28727.17,1679.98,60.4,0
8.3494724,41619,-27947.06,1563.77,60.4,0
8.349485,41624,-27160.93,1449.59,60.4,0
8.3494968,41631,-26373.44,1337.95,60.4,0
8.349509,41632,-25588.4,1229.59,60.4,0
8.3495222,41636,-24808.56,1125.55,60.4,0
8.3495341,41621,-24035.67,1026.91,60.4,0
8.349546,41631,-23270.95,934.23,60.4,0
8.3495578,41636,-22515.4,847.61,60.4,0
8.3495704,41632,-21769.82,767.31,60.4,0
8.3495826,41625,-21034.69,693.72,60.4,0
8.3495945,41610,-20310.57,626.86,60.4,0
8.3496065,41612,-19598.7,566.17,60.4,0
8.3496183,41637,-18901.14,510.91,60.4,0
8.3496299,41638,-18220.01,461.09,60.4,0
8.3496416,41636,-17556.43,417.7,60.4,0
8.3496531,41622,-16910.36,359.47,60.4,0
8.3496655,41628,-16281.35,185.64,60.4,0
8.3496773,41619,-15669.11,-285.91,60.4,0
8.3496892,41614,-15073.9,-1216.96,60.4,0
8.3497016,41603,-14496.61,-2664.35,60.4,0
8.3497135,41616,-13938.94,-4585.31,60.4,0
8.3497253,41616,-13403.0,-6874.98,60.4,0
8.3497377,41614,-12890.71,-9396.06,60.4,0
8.3497493,41611,-12403.38,-12001.21,60.4,0
8.3497615,41617,-11941.71,-14549.01,60.4,0
8.3505906,41620,-11505.81,-16913.75,60.4,0
8.3506069,41629,-11094.99,-18991.13,60.4,0
8.3732856,41621,-10707.62,-20701.35,60.4,0
8.3733048,41630,-10341.25,-21990.18,60.4,0
8.3918249,41620,-9992.95,-22827.96,60.4,0
8.391846,41624,-9659.71,-23207.29,60.4,0
8.4058761,41634,-9338.72,-23139.3,60.4,0
8.406155,41629,-9027.34,-22649.48,60.4,0
8.4263838,41631,-8723.02,-21774.14,60.4,0
8.4459095,41636,-8423.35,-20557.79,60.4,0
8.4461337,41628,-8126.22,-19050.54,60.4,0
8.4679979,41630,-7829.95,-17305.58,60.4,0
8.4680167,41636,-7533.47,-15377.16,60.4,0
8.4858795,41632,-7236.22,-13319.0,60.4,0
8.4859528,41634,-6938.02,-11182.5,60.4,0
8.506524,41636,-6639.02,-9015.11,60.4,0
8.5068498,41642,-6339.57,-6859.12,60.4,0
8.5321631,41634,-6040.09,-4751.59,60.4,0
8.532183,41641,-5741.05,-2724.81,60.4,0
8.5505437,41639,-5443.01,-806.3,60.4,0
8.5505638,41626,-5146.73,981.72,60.4,0
8.5677628,41630,-4853.35,2622.83,60.4,0
8.5677832,41648,-4564.51,4106.52,60.4,0
8.5859402,41640,-4281.89,5427.92,60.4,1
8.5865532,41619,-4006.78,6586.82,60.4,0
8.6140244,41594,-3740.64,7586.5,60.4,0
8.6140449,41589,-3486.3,8432.99,60.4,0
8.625762,41567,-3248.62,9134.95,60.4,0
8.625938,41547,-3034.45,9703.52,60.5,0
8.6458253,41541,-2852.33,10151.38,60.5,0
8.6459656,41532,-2711.89,10491.63,60.5,0
8.783746,41506,-2622.92,10736.98,60.5,0
8.7837827,41494,-2594.81,10898.91,60.5,0
8.7842635,41470,-2636.34,10987.03,60.6,0
8.7843183,41507,-2755.28,11009.06,60.6,0
8.7843501,41468,-2957.38,10971.72,60.6,0
8.7843773,41472,-3245.38,10881.07,60.7,0
8.7844033,41504,-3618.87,10742.49,60.7,0
8.7844295,41508,-4073.79,10561.53,60.7,0
8.7844641,41483,-4601.9,10344.57,60.7,0
8.784498,41472,-5191.55,10097.15,60.8,0
8.7845313,41462,-5829.63,9822.79,60.8,0
8.7845643,41473,-6503.24,9524.36,60.8,0
8.7906611,41444,-7200.17,9205.9,60.8,0
8.7909293,41455,-7909.21,8872.57,60.8,0
8.8068387,41456,-8620.31,8529.46,60.9,0
8.8069849,41438,-9324.46,8181.11,60.9,0
8.8263309,41441,-10013.62,7831.68,60.9,0
8.8264718,41422,-10680.93,7484.79,60.9,0
8.8468128,41416,-11321.05,7143.22,60.9,0
8.8471312,41427,-11930.24,6808.64,60.9,0
8.8677562,41437,-12505.89,6482.09,60.9,0
8.8690989,41435,-13045.53,6164.26,60.9,0
8.8865658,41431,-13546.22,5855.34,60.9,0
8.8866606,41438,-14004.6,5554.72,60.9,0
8.9061996,41435,-14417.17,5261.5,60.9,0
8.9069306,41423,-14780.65,4975.04,60.9,0
8.9260567,41438,-15092.29,4695.45,60.9,0
8.926323,41438,-15350.08,4423.75,60.9,0
8.9459856,41424,-15552.64,4161.46,60.9,0
8.9460179,41424,-15699.3,3909.7,60.9,0
8.9663967,41418,-15790.53,3668.87,60.9,0
8.9664164,41419,-15828.16,3439.38,60.9,0
8.9857513,41425,-15815.11,3222.08,60.9,0
8.9859241,41432,-15754.9,3018.12,60.9,0
9.0064297,41436,-15650.98,2828.84,60.9,0
9.0067447,41424,-15506.37,2655.02,60.9,0
9.0260173,41422,-15323.81,2495.84,60.9,0
9.0265278,41447,-15106.11,2349.09,60.9,0
9.5680879,41433,-14856.05,2212.28,60.9,0
9.568107,41422,-14576.05,2083.04,60.9,0
9.5681218,41422,-14268.63,1958.96,60.9,0
9.5681357,41422,-13936.96,1838.19,60.9,0
9.5681497,41413,-13584.99,1719.99,60.9,0
9.5681643,41425,-13217.17,1604.56,60.9,0
9.568178,41433,-12838.02,1492.61,60.9,0
9.5681913,41427,-12451.56,1384.84,60.9,0
9.5682058,41429,-12060.91,1281.11,60.9,0
9.5682191,41445,-11668.35,1180.64,60.9,0
9.5682325,41447,-11275.25,1083.36,60.9,0
9.5682465,41440,-10881.91,990.43,60.9,0
9.5682598,41457,-10487.77,903.29,60.9,0
9.5682737,41443,-10091.8,822.96,60.9,0
9.5682877,41446,-9692.85,750.11,60.9,0
9.5683012,41430,-9290.21,684.84,60.9,0
9.5683152,41441,-8884.13,626.42,60.9,0
9.5683284,41437,-8475.93,573.5,60.9,0
9.5683432,41440,-8067.66,524.63,60.9,0
9.5683569,41437,-7661.76,478.83,60.9,0
9.5683703,41429,-7260.81,421.73,60.9,0
9.5683843,41426,-6867.65,286.24,60.9,0
9.5683979,41448,-6485.32,-59.25,60.9,0
9.568412,41442,-6116.62,-747.49,60.9,0
9.568426,41430,-5763.47,-1840.37,60.9,0
9.5684394,41424,-5427.18,-3318.02,60.9,0
9.568453,41450,-5108.92,-5104.85,60.9,0
9.568467,41428,-4809.66,-7095.33,60.9,0
9.5684803,41435,-4529.86,-9173.15,60.9,0
9.5684946,41420,-4269.66,-11224.97,60.9,0
9.5685082,41417,-4029.35,-13149.1,60.9,0
9.5685224,41422,-3809.64,-14860.62,60.9,0
9.5685366,41416,-3611.57,-16293.84,60.9,0
9.5685508,41426,-3436.11,-17402.74,60.9,0
9.5685644,41426,-3283.77,-18159.77,60.9,0
9.5685774,41438,-3154.2,-18553.82,60.9,0
9.5685909,41425,-3045.94,-18588.61,60.9,0
9.5686045,41445,-2956.54,-18280.85,60.9,0
9.5686173,41448,-2882.72,-17657.01,60.9,0
9.5686303,41424,-2820.45,-16750.62,60.9,0
9.5686432,41431,-2765.59,-15600.72,60.9,0
9.5686574,41437,-2714.66,-14249.81,60.9,0
9.5686708,41429,-2665.07,-12741.16,60.9,0
9.5686839,41453,-2614.76,-11117.06,60.9,0
9.568698,41459,-2561.72,-9418.3,60.9,0
9.5687116,41458,-2503.45,-7683.55,60.9,0
9.5687251,41460,-2436.8,-5948.26,60.9,0
9.568738,41461,-2358.46,-4243.73,60.9,0
9.5687512,41447,-2265.49,-2596.52,60.9,0
9.5687644,41445,-2156.03,-1028.6,60.9,1
9.5687781,41468,-2029.6,442.2,60.9,0
9.5687919,41459,-1886.8,1802.03,60.9,0
9.5688103,41463,-1728.63,3040.54,60.9,0
9.5688248,41472,-1556.21,4150.64,60.9,0
9.5861689,41455,-1370.78,5128.68,60.9,0
9.5863562,41450,-1173.92,5974.19,60.9,0
9.60708,41438,-968.1,6689.56,60.9,0
9.6079115,41407,-757.24,7280.13,60.9,0
9.6268158,41377,-547.42,7754.08,60.9,0
9.6268369,41392,-347.35,8121.84,60.8,0
9.6479903,41379,-167.88,8395.93,60.8,0
9.6481526,41346,-20.63,8590.71,60.8,0
9.6660418,41348,82.93,8720.4,60.8,0
9.6664931,41340,131.74,8797.1,60.7,0
9.6858925,41336,115.99,8830.15,60.7,0
9.7060943,41332,27.93,8826.18,60.7,0
9.7066383,41333,-137.46,8789.45,60.7,0
9.7262023,41343,-382.09,8722.5,60.6,0
9.7266478,41335,-704.45,8627.03,60.6,0
9.7460906,41330,-1099.71,8504.52,60.6,0
9.746318,41325,-1560.4,8356.2,60.5,0
9.7659194,41337,-2077.28,8183.08,60.5,0
9.7661552,41316,-2639.85,7986.55,60.5,0
9.7858173,41300,-3237.07,7769.22,60.5,0
9.7859956,41292,-3858.38,7535.03,60.4,0
9.8063898,41297,-4494.68,7288.36,60.4,0
9.8067531,41299,-5138.23,7033.04,60.4,0
9.8802033,41271,-5782.23,6772.07,60.4,0
9.8813397,41275,-6420.78,6507.59,60.4,0
9.8813878,41277,-7049.13,6241.18,60.3,0
9.8814306,41267,-7663.51,5975.0,60.3,0
9.8814736,41260,-8260.73,5711.8,60.3,0
9.8815147,41262,-8838.09,5453.51,60.3,0
9.8860237,41269,-9393.35,5200.49,60.3,0
9.8862413,41264,-9924.21,4952.19,60.3,0
9.9081385,41265,-10428.09,4707.72,60.3,0
9.9082891,41282,-10901.98,4465.92,60.3,0
9.9272751,41277,-11342.32,4226.03,60.3,0
9.9273225,41285,-11744.87,3987.9,60.3,0
9.9463759,41273,-12104.98,3751.57,60.3,0
9.9466563,41280,-12418.13,3516.99,60.3,0
9.970155,41264,-12680.62,3284.4,60.3,0
9.9705473,41268,-12890.02,3054.59,60.3,0
9.9873056,41263,-13045.48,2828.84,60.3,0
9.9873395,41273,-13147.66,2609.02,60.3,0
10.0066448,41254,-13198.35,2397.81,60.3,0
10.0070259,41253,-13200.34,2197.96,60.3,0
10.026309,41251,-13157.54,2011.08,60.3,0
10.0263339,41255,-13074.8,1837.56,60.3,0
10.0463083,41243,-12957.54,1677.35,60.3,0
10.0466751,41267,-12811.25,1529.96,60.3,0
10.6678408,41270,-12640.93,1394.46,60.3,0
10.6679126,41244,-12450.47,1270.03,60.3,0
10.6679712,41254,-12242.88,1155.79,60.3,0
10.6680269,41265,-12020.91,1050.62,60.3,0
10.6680821,41264,-11786.99,953.48,60.3,0
10.6681372,41262,-11542.81,863.56,60.3,0
10.6681916,41268,-11289.35,780.02,60.3,0
10.6682452,41252,-11027.17,702.01,60.3,0
10.6682991,41256,-10756.84,629.05,60.3,0
10.6683526,41272,-10479.26,561.33,60.3,0
10.6684074,41259,-10195.4,499.47,60.3,0
10.6684609,41266,-9906.08,443.89,60.3,0
10.6685154,41267,-9611.94,394.35,60.3,0
10.6685704,41273,-9313.5,350.21,60.3,0
10.6686238,41269,-9011.06,310.68,60.3,0
10.6686782,41266,-8704.77,274.88,60.3,0
10.6688213,41273,-8394.86,241.85,60.3,0
10.6688786,41271,-8081.73,210.62,60.3,0
10.6689325,41279,-7765.88,180.35,60.3,0
10.6689878,41267,-7447.79,150.85,60.3,0
10.6690419,41262,-7128.07,122.53,60.3,0
10.6690959,41272,-6807.84,95.88,60.3,0
10.6691511,41269,-6488.7,71.41,60.3,0
10.6692057,41287,-6172.33,49.45,60.3,0
10.66926,41284,-5859.95,30.08,60.3,0
10.6693153,41263,-5552.08,13.6,60.3,0
10.6693721,41272,-5249.06,0.47,60.3,0
10.669427,41287,-4951.59,-9.16,60.3,0
10.6694825,41291,-4660.4,-15.5,60.3,0
10.6695376,41289,-4375.65,-18.96,60.3,0
10.6695926,41298,-4096.67,-20.0,60.3,0
10.6696472,41289,-3822.31,-18.94,60.3,0
10.6697005,41292,-3551.22,-16.22,60.3,0
10.6697535,41274,-3282.45,-12.57,60.3,0
10.6698075,41311,-3015.71,-8.87,60.3,0
10.6698616,41295,-2751.15,-5.63,60.3,0
10.669916,41292,-2488.87,-3.12,60.3,0
10.6699696,41306,-2228.87,-1.62,60.3,0
10.6700243,41316,-1971.18,-1.44,60.3,0
10.6700797,41310,-1715.52,-2.3,60.3,0
10.6701346,41315,-1461.13,-3.44,60.3,0
10.6701902,41328,-1206.98,-4.44,60.3,0
10.6702465,41303,-952.0,-5.17,60.3,0
10.6703016,41326,-695.34,-5.65,60.3,0
10.6703566,41306,-436.79,-6.37,60.3,0
10.6704113,41317,-176.85,-8.17,60.3,0
10.6704667,41320,83.29,-11.76,60.3,0
10.6705219,41337,342.13,-17.35,60.3,1
10.670577,41329,598.45,-24.71,60.3,0
10.6706301,41329,851.62,-33.13,60.3,0
10.6706845,41316,1101.19,-41.4,60.3,0
10.6707645,41339,1346.44,-48.17,60.3,0
10.6708232,41339,1586.33,-52.5,60.3,0
10.6708783,41339,1820.05,-53.96,60.3,0
10.6709318,41341,2047.25,-52.35,60.3,0
10.6709859,41329,2267.81,-47.57,60.3,0
10.6710394,41328,2481.33,-39.89,60.3,0
10.671093,41327,2686.75,-29.81,60.3,0
10.6711463,41325,2882.29,-17.69,60.3,0
10.6711999,41292,3065.44,-3.42,60.3,0
10.6712546,41301,3232.72,13.63,60.3,0
10.6713089,41280,3379.34,35.23,60.3,0
10.68754,41264,3499.37,64.33,60.3,0
10.6877634,41244,3585.87,104.04,60.3,0
10.7064626,41244,3630.97,156.46,60.3,0
10.7066286,41225,3626.31,222.3,60.3,0
10.7263803,41224,3563.77,300.97,60.3,0
10.7265441,41234,3436.31,391.03,60.3,0
10.7463885,41225,3238.9,490.61,60.3,0
10.7467592,41211,2969.2,597.34,60.3,0
10.766306,41203,2627.39,707.62,60.3,0
10.7665719,41215,2215.64,816.51,60.3,0
10.7935112,41225,1738.04,918.85,60.3,0
10.7936004,41220,1201.03,1010.63,60.3,0
10.8080606,41198,613.37,1089.28,60.3,0
10.808169,41201,-14.84,1153.45,60.3,0
10.8274661,41191,-673.38,1202.78,60.3,0
10.8275512,41170,-1352.7,1237.68,60.3,0
10.8463975,41183,-2044.34,1259.31,60.3,0
10.846867,41180,-2741.08,1269.51,60.3,0
10.8686203,41173,-3436.51,1270.63,60.3,0
10.8686696,41170,-4124.66,1264.91,60.3,0
10.8874045,41152,-4800.12,1254.02,60.3,0
10.8874563,41148,-5458.45,1238.69,60.3,0
10.9066039,41150,-6096.44,1218.72,60.3,0
10.9068171,41175,-6711.75,1193.15,60.3,0
10.9262168,41162,-7301.95,1161.25,60.3,0
10.9267724,41164,-7863.85,1122.81,60.3,0
10.9457263,41169,-8393.54,1077.52,60.3,0
10.9664544,41175,-8886.82,1024.49,60.3,0
10.9664872,41178,-9339.25,962.33,60.3,0
10.9870952,41181,-9746.2,889.86,60.3,0
10.9877208,41179,-10103.11,807.14,60.3,0
11.0082577,41161,-10405.96,715.5,60.3,0
11.008299,41151,-10652.11,616.74,60.3,0
11.0259811,41159,-10841.03,512.58,60.3,0
11.0263203,41162,-10974.35,405.15,60.3,0
11.0459279,41155,-11055.16,297.58,60.3,0
11.0462066,41162,-11087.3,193.29,60.3,0
11.6097985,41157,-11075.03,94.69,60.3,0
11.6098499,41169,-11022.71,2.71,60.3,0
11.6098804,41160,-10934.49,-82.63,60.3,0
11.6099087,41170,-10814.09,-161.5,60.3,0
11.6099349,41164,-10664.83,-234.19,60.3,0
11.6099614,41155,-10489.69,-301.06,60.3,0
11.6099877,41164,-10291.64,-362.32,60.3,0
11.6100132,41180,-10073.68,-417.82,60.3,0
11.6100395,41174,-9838.4,-467.4,60.3,0
11.6100653,41169,-9587.6,-511.16,60.3,0
11.6100904,41164,-9322.62,-549.76,60.3,0
11.6101157,41168,-9044.94,-584.34,60.3,0
11.6101407,41181,-8756.37,-615.8,60.3,0
11.6101659,41192,-8458.58,-644.0,60.3,0
11.6101911,41165,-8152.66,-668.25,60.3,0
11.6102154,41178,-7839.29,-688.25,60.3,0
11.61024,41164,-7519.51,-704.27,60.3,0
11.6102647,41162,-7195.05,-716.69,60.3,0
11.6102894,41165,-6868.48,-725.89,60.3,0
11.6103138,41169,-6542.92,-732.27,60.3,0
11.6103384,41181,-6221.56,-736.2,60.3,0
11.6103629,41186,-5906.9,-737.54,60.3,0
11.6103876,41175,-5600.29,-735.58,60.3,0
11.6104128,41171,-5302.24,-729.82,60.3,0
11.6104376,41180,-5012.95,-720.75,60.3,0
11.610462,41192,-4732.58,-709.32,60.3,0
11.6104869,41186,-4460.92,-696.22,60.3,0
11.6105114,41184,-4197.17,-681.74,60.3,0
11.6105359,41185,-3940.28,-666.11,60.3,0
11.6105603,41180,-3689.37,-649.41,60.3,0
11.6105852,41190,-3443.9,-631.41,60.3,0
11.6106098,41212,-3203.52,-611.71,60.3,0
11.6106362,41197,-2967.46,-589.81,60.3,0
11.6106606,41196,-2734.34,-565.49,60.3,0
11.6106855,41200,-2502.63,-539.41,60.3,0
11.6107095,41214,-2271.13,-512.74,60.3,0
11.6107339,41211,-2038.81,-486.47,60.3,0
11.6107582,41215,-1804.53,-461.38,60.3,0
11.6107831,41212,-1567.12,-438.04,60.3,0
11.6108082,41223,-1325.62,-416.24,60.3,0
11.6108324,41223,-1079.37,-395.16,60.3,0
11.6108581,41222,-827.88,-373.88,60.3,0
11.6108824,41217,-570.98,-351.73,60.3,0
11.6109068,41207,-309.11,-328.43,60.3,0
11.6109315,41220,-43.72,-304.44,60.3,0
11.6109565,41230,222.93,-280.94,60.3,0
11.6109806,41234,488.49,-258.75,60.3,0
11.6110057,41233,751.18,-237.74,60.3,0
11.61103,41238,1009.93,-217.33,60.3,0
11.6110546,41230,1264.09,-197.25,60.3,0
11.611079,41227,1513.12,-177.64,60.3,0
11.6111037,41219,1756.07,-158.75,60.3,0
11.6111285,41215,1991.19,-141.04,60.3,0
11.6111537,41224,2215.95,-125.32,60.3,0
11.6111783,41230,2427.32,-112.01,60.3,0
11.6112031,41240,2622.64,-100.55,60.3,0
11.6260714,41239,2800.28,-90.19,60.3,0
11.6265331,41230,2959.78,-80.8,60.3,0
11.6459874,41247,3101.54,-72.53,60.3,0
11.6467836,41233,3226.46,-65.47,60.3,1
11.6658999,41233,3335.72,-59.91,60.3,0
11.6663455,41248,3430.49,-56.77,60.3,0
11.6859352,41255,3512.0,-56.99,60.3,0
11.6862941,41241,3581.9,-60.52,60.3,0
11.7068771,41243,3642.18,-66.53,60.3,0
11.7073186,41224,3694.5,-74.26,60.3,0
11.7260751,41230,3739.55,-83.21,60.3,0
11.7266017,41217,3776.76,-92.76,60.3,0
11.7465021,41199,3804.29,-101.71,60.3,0
11.7465354,41174,3818.89,-107.86,60.3,0
11.7660268,41173,3815.46,-107.92,60.3,0
11.766372,41155,3787.19,-98.09,60.3,0
11.7863058,41168,3726.27,-74.77,60.3,0
11.7867602,41142,3624.96,-35.33,60.2,0
11.80806,41144,3476.41,21.57,59.7,0
11.8081107,41131,3275.04,95.67,59.0,0
11.8847579,41136,3016.68,184.77,58.0,0
11.8847936,41132,2698.99,285.34,56.8,0
11.8848231,41138,2321.79,393.53,55.2,0
11.8848509,41141,1887.36,505.28,53.5,0
11.8848774,41133,1400.47,616.15,51.5,0
11.8849034,41141,868.07,721.75,49.3,0
11.8864125,41131,298.74,818.44,46.9,0
11.8864465,41133,-297.99,903.62,44.4,0
11.9058789,41128,-912.17,975.54,41.7,0
11.9061962,41114,-1534.14,1033.26,38.9,0
11.9259733,41108,-2155.1,1076.78,36.0,0
11.9259971,41109,-2767.69,1106.76,33.1,0
11.9490772,41090,-3366.19,1123.94,30.2,0
11.9491586,41083,-3946.55,1128.82,27.2,0
11.9671368,41093,-4506.37,1121.66,24.3,0
11.9671739,41087,-5044.52,1103.09,21.4,0
11.9861754,41096,-5560.36,1074.63,18.6,0
11.9867484,41099,-6053.01,1038.31,15.9,0
12.0061062,41093,-6521.02,995.96,13.4,0
12.0070762,41104,-6962.27,948.79,11.0,0
12.0267144,41112,-7374.03,897.36,8.8,0
12.0267483,41108,-7752.95,841.89,6.8,0
12.6198374,41115,-8095.13,782.27,5.1,0
12.6198616,41113,-8396.51,718.86,3.6,0
12.6198761,41097,-8653.34,653.19,2.3,0
12.6198894,41107,-8862.87,587.07,1.3,0
12.6199026,41093,-9023.77,521.56,0.6,0
12.6199163,41106,-9136.29,457.04,0.1,0
12.6199295,41105,-9201.87,393.81,0.0,0
12.6199429,41081,-9222.85,332.21,0.0,0
12.6199555,41092,-9202.5,272.32,0.0,0
12.6199678,41074,-9145.24,214.02,0.0,0
12.6199802,41092,-9056.52,157.3,0.0,0
12.6199928,41083,-8942.22,102.42,0.0,0
12.6200051,41079,-8808.11,49.75,0.0,0
12.6200181,41089,-8659.47,-0.68,0.0,0
12.6200311,41062,-8501.12,-49.3,0.0,0
12.6200432,41096,-8337.37,-96.7,0.0,0
12.6200555,41092,-8171.85,-143.18,0.0,0
12.6200684,41097,-8006.85,-188.32,0.0,0
12.620081,41086,-7843.16,-230.9,0.0,0
12.6200934,41087,-7680.52,-269.39,0.0,0
12.6201056,41087,-7518.38,-302.91,0.0,0
12.6201178,41092,-7356.19,-331.77,0.0,0
12.62013,41097,-7193.34,-356.99,0.0,0
12.6201425,41082,-7029.05,-379.46,0.0,0
12.6201547,41073,-6862.67,-399.67,0.0,0
12.6201667,41081,-6694.21,-418.23,0.0,0
12.6201787,41086,-6524.49,-435.76,0.0,0
12.6201909,41088,-6354.64,-451.94,0.0,0
12.6202038,41071,-6185.63,-465.68,0.0,0
12.6202157,41077,-6018.33,-476.58,0.0,0
12.6202279,41081,-5853.84,-485.3,0.0,0
12.6202407,41076,-5693.35,-492.44,0.0,0
12.6202535,41083,-5537.84,-498.54,0.0,0
12.6202656,41081,-5387.94,-504.23,0.0,0
12.6202774,41085,-5243.82,-509.49,0.0,0
12.6202899,41078,-5105.21,-513.64,0.0,0
12.6203024,41088,-4971.53,-516.22,0.0,0
12.6203153,41106,-4841.88,-517.16,0.0,0
12.6203277,41101,-4714.64,-516.19,0.0,0
12.6203397,41075,-4587.43,-513.01,0.0,0
12.6203515,41095,-4457.87,-507.83,0.0,0
12.620364,41082,-4324.4,-501.31,0.0,0
12.6203766,41091,-4186.34,-494.0,0.0,0
12.620389,41100,-4043.56,-486.43,0.0,0
12.6204018,41086,-3896.13,-479.3,0.0,0
12.620414,41075,-3744.29,-473.56,0.0,0
12.6204261,41097,-3588.79,-470.17,0.0,0
12.6204381,41096,-3430.89,-469.39,0.0,0
12.6204506,41080,-3271.8,-470.4,0.0,0
12.6204633,41093,-3112.55,-472.46,0.0,0
12.6204761,41087,-2954.24,-475.97,0.0,0
12.6204884,41099,-2797.98,-481.63,0.0,0
12.6205007,41117,-2644.43,-489.01,0.0,0
12.6205128,41106,-2493.34,-496.55,0.0,0
12.6205249,41108,-2343.42,-502.42,0.0,0
12.620537,41125,-2192.77,-505.14,0.0,0
12.6205493,41119,-2039.2,-503.74,0.0,0
12.6269634,41093,-1880.44,-497.61,0.0,0
12.627146,41114,-1714.91,-486.91,0.0,0
12.6460837,41126,-1542.13,-472.59,0.0,0
12.6461431,41116,-1362.26,-455.36,0.0,0
12.6663098,41122,-1175.51,-435.26,0.0,0
12.6666077,41124,-982.15,-412.22,0.0,0
12.6859205,41133,-782.6,-386.27,0.0,1
12.6861049,41131,-577.25,-357.16,0.0,0
12.7057457,41130,-366.38,-324.54,0.0,0
12.7059433,41142,-150.27,-288.93,0.0,0
12.7260226,41132,70.71,-251.74,0.0,0
12.7263559,41136,296.08,-214.58,0.0,0
12.7472556,41129,524.98,-178.71,0.0,0
12.7473324,41118,755.96,-144.7,0.0,0
12.7693616,41110,986.56,-112.17,0.0,0
12.7697764,41116,1213.15,-79.6,0.0,0
12.7869595,41072,1430.96,-44.36,0.0,0
12.7870854,41057,1633.86,-3.27,0.0,0
12.8075271,41040,1813.73,46.29,0.0,0
12.8075827,41053,1960.56,106.05,0.0,0
12.8266307,41038,2063.66,177.15,0.0,0
12.8266792,41023,2113.09,260.0,0.0,0
12.8482239,41023,2100.36,353.55,0.0,0
12.8483133,41033,2018.84,454.93,0.0,0
12.8679817,41026,1864.39,560.47,0.0,0
12.8684597,41025,1635.95,666.69,57.5,0
12.8871154,41008,1335.35,770.27,57.5,0
12.887195,41023,966.77,867.49,57.5,0
12.9072762,41014,536.19,954.59,57.5,0
12.9077606,41007,51.16,1028.5,57.5,0
12.9261674,41012,-479.59,1087.23,57.5,0
12.9264044,40989,-1046.79,1130.05,57.5,0
12.9462977,41000,-1641.19,1157.21,57.5,0
12.9465273,40988,-2254.01,1169.62,57.5,0
12.9659308,40993,-2877.09,1168.73,57.5,0
12.9662981,40993,-3502.77,1156.26,57.5,0
12.9865928,40987,-4123.82,1134.09,57.5,0
12.9866715,40987,-4733.41,1104.53,57.5,0
13.0066302,40975,-5325.32,1070.14,57.5,0
13.0067022,40960,-5894.35,1032.54,57.5,0
13.0261704,40985,-6436.6,991.23,57.5,0
13.0263434,40992,-6949.18,944.2,57.5,0
13.0467657,40997,-7429.19,889.89,57.5,0
13.0473039,40985,-7873.05,827.79,57.5,0
13.4667442,40989,-8276.84,757.92,57.5,0
13.4667605,40994,-8636.94,680.53,57.5,0
13.4667746,40996,-8950.3,596.5,57.5,0
13.4667875,40987,-9214.45,507.4,57.5,0
13.4668,40995,-9427.65,414.97,57.5,0
13.4668127,40992,-9589.11,320.86,57.5,0
13.4668248,40997,-9698.92,227.26,57.5,0
13.4668369,40983,-9758.0,136.7,57.5,0
13.4668488,41003,-9768.09,51.16,57.5,0
13.4668617,40992,-9731.65,-28.15,57.5,0
13.4668735,40997,-9651.57,-100.48,57.5,0
13.4668851,40994,-9531.06,-165.32,57.5,0
13.4668971,40970,-9373.76,-222.56,57.5,0
13.4669095,40993,-9184.12,-272.78,57.5,0
13.4669219,40981,-8967.38,-317.18,57.5,0
13.4669337,40985,-8729.05,-356.98,57.5,0
13.4669458,40982,-8474.57,-393.09,57.5,0
13.4669579,41007,-8208.91,-425.87,57.5,0
13.46697,40997,-7936.13,-454.77,57.5,0
13.4669821,40998,-7658.91,-478.84,57.5,0
13.4669938,41004,-7378.82,-497.39,57.5,0
13.4670054,41008,-7096.65,-510.13,57.5,0
13.4670175,41000,-6812.62,-517.26,57.5,0
13.4670294,40993,-6526.69,-519.31,57.5,0
13.4670413,40996,-6239.12,-516.99,57.5,0
13.4670529,40997,-5950.8,-511.07,57.5,0
13.4670647,41005,-5663.05,-502.1,57.5,0
13.4670763,40987,-5377.33,-490.51,57.5,0
13.4670882,41000,-5095.14,-477.02,57.5,0
13.4671011,41005,-4818.12,-462.43,57.5,0
13.4671141,41008,-4547.62,-447.22,57.5,0
13.4671264,40995,-4284.5,-431.42,57.5,0
13.4671388,40985,-4029.31,-414.89,57.5,0
13.4671506,41011,-3782.84,-397.63,57.5,0
13.4671624,41001,-3546.1,-379.7,57.5,0
13.4671741,41005,-3319.69,-361.11,57.5,0
13.4671855,41009,-3103.69,-341.89,57.5,0
13.4671978,41008,-2897.7,-322.25,57.5,0
13.4672099,41021,-2700.89,-302.43,57.5,0
13.4672219,41030,-2511.85,-282.6,57.5,0
13.467234,41010,-2328.52,-262.93,57.5,0
13.4861364,41004,-2148.6,-244.25,57.5,0
13.4862991,41028,-1970.4,-228.07,57.5,0
13.5104872,41011,-1792.99,-215.68,57.5,0
13.5109253,41033,-1615.82,-207.77,57.5,0
13.526233,41034,-1438.28,-204.64,57.5,0
13.5268283,41015,-1259.57,-206.32,57.5,0
13.5462375,41017,-1079.02,-212.89,57.5,0
13.5464003,41026,-896.64,-224.77,57.5,0
13.5661566,41044,-713.1,-241.93,57.5,0
13.5666047,41026,-529.0,-263.26,57.5,0
13.5863069,41023,-344.63,-287.4,57.5,0
13.587321,41051,-160.32,-313.99,57.5,0
13.6062756,41034,23.57,-343.05,57.5,0
13.606599,41033,206.87,-373.89,57.5,0
13.6259987,41031,389.4,-405.35,57.5,0
13.6261627,41048,570.57,-436.52,57.5,0
13.6475852,41039,749.6,-466.53,57.5,0
13.647646,41050,925.91,-494.26,57.5,0
13.6657112,41047,1099.18,-518.51,57.5,1
13.6658372,41058,1269.42,-538.31,57.5,0
13.6857317,41048,1436.89,-553.08,57.5,0
13.6858779,41062,1602.05,-563.1,57.5,0
13.7058112,41055,1765.41,-569.28,57.5,0
13.7077061,41061,1927.45,-572.36,57.5,0
13.726561,41075,2088.63,-572.61,57.5,0
13.7267664,41079,2249.58,-569.65,57.5,0
13.7471929,41083,2411.45,-562.73,57.5,0
13.747513,41070,2575.79,-551.32,57.5,0
13.7733699,41090,2744.09,-535.04,57.5,0
13.7733868,41094,2917.49,-513.42,57.5,0
13.7867335,41075,3096.89,-486.6,57.5,0
13.7869333,41082,3282.73,-456.39,57.5,0
13.806987,41118,3474.71,-425.62,57.5,0
13.8082675,41095,3672.31,-395.86,57.5,0
13.9059468,41093,3875.26,-366.74,57.5,0
13.9059859,41070,4083.01,-337.5,57.5,0
13.9060156,41068,4293.63,-307.96,57.5,0
13.9060422,41054,4503.22,-277.95,57.5,0
13.9060677,41034,4705.84,-246.18,57.5,0
13.9060934,41020,4893.66,-209.86,57.5,0
13.9061195,41015,5057.2,-165.18,57.5,0
13.9061455,41000,5185.88,-108.41,57.5,0
13.9073862,40998,5268.97,-36.84,57.5,0
13.9075725,41004,5296.43,50.63,57.5,0
13.9258629,40995,5260.01,153.44,57.5,0
13.926112,41008,5154.04,269.27,57.5,0
13.9459438,40996,4975.89,394.18,57.5,0
13.9460944,41016,4726.11,523.54,57.5,0
13.9660035,40997,4408.31,652.72,57.5,0
13.9660421,40991,4028.6,777.19,57.5,0
13.9867531,40998,3594.68,892.81,57.5,0
13.9870158,40999,3115.09,996.41,57.4,0
14.0061829,41002,2599.06,1085.74,57.4,0
14.0065589,40981,2056.28,1159.06,57.4,0
14.0259459,40987,1496.33,1214.94,57.3,0
14.0263862,40977,927.91,1252.97,57.3,0
14.7419948,40973,358.54,1274.35,57.3,0
14.7420404,40980,-205.54,1281.32,57.2,0
14.7420756,40975,-759.12,1276.6,57.2,0
14.7421083,40967,-1297.75,1262.76,57.1,0
14.7421419,40950,-1817.84,1241.53,57.0,0
14.7421745,40965,-2316.94,1213.57,57.0,0
14.7422073,40968,-2793.67,1179.1,56.9,0
14.7422405,40960,-3247.07,1138.3,56.9,0
14.7422723,40988,-3675.97,1091.1,56.8,0
14.7423051,40975,-4078.6,1037.3,56.7,0
14.742466,40987,-4452.37,976.93,56.7,0
14.7425219,40999,-4793.91,909.96,56.6,0
14.742557,40998,-5099.27,836.39,56.6,0
14.7425884,40984,-5364.14,756.85,56.5,0
14.7426198,41001,-5584.54,672.49,56.5,0
14.7426526,40990,-5757.5,584.8,56.4,0
14.7426843,40987,-5881.24,495.5,56.4,0
14.7427162,40988,-5955.41,406.4,56.3,0
14.74275,40971,-5981.32,319.18,56.3,0
14.7427816,40977,-5961.96,235.11,56.3,0
14.7428129,40966,-5902.01,154.69,56.2,0
14.7428682,40974,-5807.42,77.77,56.2,0
14.7429155,40967,-5684.89,3.86,56.2,0
14.7429486,40963,-5541.34,-67.56,56.2,0
14.7429813,40981,-5383.47,-136.49,56.2,0
14.7430133,40998,-5217.19,-202.21,56.2,0
14.7430459,40989,-5046.67,-263.53,56.2,0
14.7430782,40990,-4874.06,-319.58,56.2,0
14.7431101,40996,-4699.96,-370.35,56.2,0
14.743142,40995,-4524.12,-416.41,56.2,0
14.7431742,40996,-4345.74,-458.39,56.2,0
14.743206,40990,-4163.81,-496.74,56.2,0
14.7432392,40992,-3977.55,-531.75,56.2,0
14.7432707,40983,-3786.68,-563.72,56.2,0
14.7433022,40999,-3591.63,-593.06,56.2,0
14.7433335,40997,-3393.25,-619.59,56.2,0
14.7433834,40998,-3192.4,-642.19,56.2,0
14.7434233,41003,-2989.77,-659.25,56.2,0
14.7434548,40992,-2785.87,-669.59,56.2,0
14.7434848,40988,-2581.31,-673.16,56.2,0
14.7435155,41005,-2377.12,-670.61,56.2,0
14.7435455,40997,-2174.57,-662.43,56.2,0
14.7435764,41007,-1974.8,-648.75,56.2,0
14.743607,41006,-1778.57,-629.78,56.2,0
14.7436374,41003,-1586.23,-606.45,56.2,0
14.7436671,41019,-1397.81,-580.44,56.2,0
14.7436972,41012,-1212.99,-553.22,56.2,0
14.7437268,41011,-1031.13,-525.57,56.2,0
14.743757,41007,-851.49,-498.12,56.2,0
14.7437874,40992,-673.8,-471.97,56.2,0
14.7438169,41017,-498.55,-448.68,56.2,0
14.7438467,41012,-326.87,-429.89,56.2,0
14.743903,41016,-159.79,-416.74,56.2,0
14.743938,41022,2.09,-409.67,56.2,0
14.7439687,41031,158.76,-408.25,56.2,0
14.7439982,41021,310.85,-410.92,56.2,0
14.7440289,41022,459.42,-415.52,56.2,0
14.7440602,41027,605.5,-420.01,56.2,0
14.7440911,41023,749.82,-422.92,56.2,0
14.7441232,41040,892.86,-423.46,56.2,0
14.744153,41041,1035.13,-421.23,56.2,0
14.7441823,41028,1177.41,-415.84,56.2,0
14.7442132,41051,1320.58,-407.09,56.2,0
14.7442433,41049,1465.5,-395.14,56.2,0
14.7442738,41052,1613.15,-380.46,56.2,0
14.7443032,41050,1764.7,-363.84,56.2,0
14.7443329,41065,1921.27,-346.28,56.2,0
14.744374,41057,2083.82,-328.11,56.2,0
14.744417,41065,2253.18,-309.0,56.2,0
14.7463834,41063,2429.9,-288.73,56.2,0
14.7464288,41042,2614.0,-267.67,56.2,0
14.7678538,41072,2804.62,-246.82,56.2,0
14.768673,41060,3000.02,-227.39,56.2,0
14.7865094,41062,3198.09,-210.14,56.2,0
14.7865571,41068,3396.66,-195.23,56.2,0
14.8068711,41071,3593.55,-182.79,56.2,0
14.8069299,41084,3786.87,-173.41,56.2,0
14.8277836,41059,3975.24,-167.93,56.2,0
14.8278788,41071,4157.55,-166.72,56.2,0
14.8469406,41065,4332.46,-169.87,56.2,0
14.8469932,41073,4498.26,-177.51,56.2,0
14.8666903,41066,4653.2,-189.61,56.2,1
14.8669237,41089,4795.66,-205.37,56.2,0
14.8876462,41075,4924.59,-223.09,56.2,0
14.8877042,41093,5039.71,-240.76,56.2,0
14.9088569,41086,5141.53,-257.12,56.2,0
14.9089205,41089,5231.21,-271.48,56.2,0
14.9269641,41077,5310.16,-282.59,56.2,0
14.9274862,41062,5379.45,-288.19,56.2,0
14.9475748,41063,5439.07,-284.84,56.2,0
14.9476547,41037,5487.5,-268.4,56.2,0
14.9670718,41019,5521.43,-235.19,56.2,0
14.9671335,41008,5535.58,-183.28,56.2,0
14.9868527,41012,5522.84,-112.94,56.2,0
14.9869278,40994,5475.15,-25.77,56.2,0
15.0061405,41006,5384.63,76.56,56.2,0
15.0067165,41004,5244.56,192.11,56.2,0
15.0272671,41007,5050.29,317.82,56.2,0
15.0273344,40987,4799.69,449.24,56.2,0
15.4981751,41004,4493.0,580.64,56.2,0
15.498231,41004,4132.49,705.96,56.2,0
15.5000726,41000,3722.48,820.31,56.2,0
15.5001094,41002,3269.22,920.41,56.2,0
15.5001462,41004,2780.35,1004.5,56.2,0
15.5001802,40993,2264.42,1072.14,56.2,0
15.500215,40995,1730.28,1123.88,56.2,0
15.5002495,40967,1186.36,1160.55,56.2,0
15.500283,40976,639.92,1182.66,56.2,0
15.5003164,40993,96.68,1190.54,56.1,0
15.5003507,40972,-438.62,1185.05,56.1,0
15.5003844,40975,-961.69,1167.75,56.1,0
15.5004177,40971,-1468.78,1140.27,56.1,0
15.5004514,40976,-1956.86,1104.14,56.1,0
15.5005297,40982,-2423.39,1060.68,56.0,0
15.5005741,40980,-2865.89,1010.61,56.0,0
15.5006091,40990,-3281.73,953.94,56.0,0
15.500643,41004,-3667.95,890.67,56.0,0
15.5006766,40982,-4021.12,821.49,56.0,0
15.5007106,40980,-4337.74,747.71,55.9,0
15.5007422,40974,-4615.2,670.66,55.9,0
15.5007708,40968,-4852.4,591.41,55.9,0
15.5007993,40993,-5049.83,510.44,55.9,0
15.5008277,40964,-5208.98,427.96,55.9,0
15.5008569,40967,-5331.94,344.68,55.8,0
15.5008858,40989,-5421.46,261.56,55.8,0
15.500914,40966,-5480.66,179.85,55.8,0
15.5009432,40969,-5512.61,101.08,55.8,0
15.5009716,40977,-5520.41,26.63,55.8,0
15.5010004,40976,-5507.18,-42.53,55.8,0
15.5010292,40974,-5475.7,-105.87,55.8,0
15.501059,40985,-5428.27,-163.1,55.8,0
15.5010874,40974,-5366.67,-213.8,55.8,0
15.5011154,40982,-5292.22,-257.42,55.8,0
15.5011424,40967,-5206.01,-293.91,55.8,0
15.5011704,40973,-5109.23,-324.1,55.8,0
15.5011975,40982,-5003.33,-349.29,55.8,0
15.501225,40987,-4889.71,-370.3,55.8,0
15.5012537,40995,-4769.22,-387.06,55.8,0
15.5013076,40992,-4641.84,-399.11,55.8,0
15.5013501,40982,-4506.89,-406.28,55.8,0
15.5013802,40995,-4363.54,-409.01,55.8,0
15.5014097,41003,-4211.17,-408.01,55.8,0
15.5014398,41000,-4049.15,-403.51,55.8,0
15.5014688,41005,-3876.68,-395.26,55.8,0
15.5014981,40988,-3692.96,-383.15,55.8,0
15.5067834,40988,-3497.8,-367.73,55.8,0
15.5072728,40992,-3292.09,-350.03,55.8,0
15.5271202,40985,-3077.78,-330.59,55.8,0
15.527196,40984,-2857.64,-309.27,55.8,0
15.5488511,40966,-2635.07,-286.15,55.8,0
15.5489094,40979,-2414.19,-262.26,55.8,0
15.5664716,40983,-2199.56,-238.89,55.8,0
15.5667013,40992,-1995.44,-216.48,55.8,0
15.5862128,40986,-1804.98,-194.53,55.8,0
15.5869216,40998,-1629.97,-172.68,55.8,0
15.6069436,40988,-1470.91,-151.22,55.8,0
15.6070486,40978,-1327.4,-131.03,55.8,0
15.6305222,40994,-1198.7,-113.67,55.8,0
15.630616,40992,-1083.99,-101.0,55.8,0
15.6460458,40994,-982.19,-94.03,55.8,0
15.6462797,41000,-891.72,-92.94,55.8,0
15.6658763,41010,-810.55,-97.61,55.8,0
15.6661119,41008,-736.07,-107.36,55.8,0
15.6862274,41004,-665.19,-120.69,55.8,0
15.6864918,40984,-594.87,-135.78,55.8,0
15.7058702,40994,-522.98,-151.63,55.8,0
15.7061189,40997,-448.75,-168.32,55.8,0
15.725776,41005,-372.33,-185.68,55.8,0
15.7259062,41006,-294.13,-202.56,55.8,0
15.7459304,41021,-214.23,-217.35,55.8,0
15.746282,41016,-132.11,-228.38,55.8,0
15.766137,41010,-46.64,-234.29,55.8,0
15.7662976,41027,43.54,-234.66,55.8,0
15.7856193,41032,139.76,-230.09,55.8,1
15.78584,41054,243.68,-221.68,55.8,0
15.8077543,41060,357.77,-210.3,55.8,0
15.8078169,41057,485.49,-196.46,55.8,0
15.90181,41072,630.86,-180.83,55.8,0
15.9018656,41067,797.89,-164.62,55.8,0
15.9021212,41082,990.09,-149.34,55.8,0
15.9021639,41062,1210.09,-136.49,55.8,0
15.9022046,41067,1459.23,-127.32,55.8,0
15.9022439,41059,1736.95,-123.09,55.8,0
15.9022844,41060,2040.59,-125.32,55.8,0
15.9068437,41047,2365.58,-135.15,55.8,0
15.9070934,41043,2705.64,-152.3,55.8,0
15.9295074,41034,3052.94,-174.93,55.8,0
15.929603,41033,3398.49,-200.49,55.8,0
15.9468334,41002,3732.5,-225.8,55.8,0
15.947111,40989,4044.51,-247.05,55.8,0
15.968188,40978,4323.17,-260.31,55.8,0
15.9682545,40950,4556.44,-261.91,55.8,0
15.9894877,40948,4731.93,-249.0,55.8,0
15.9899114,40942,4837.57,-220.17,55.8,0
16.007228,40923,4862.51,-175.5,55.8,0
16.007535,40918,4797.84,-116.27,55.8,0
16.0274559,40926,4637.05,-45.01,55.8,0
16.027511,40915,4376.56,34.84,55.8,0
16.0469233,40915,4016.15,119.57,55.8,0
16.0469782,40908,3558.95,205.52,55.8,0
16.6133701,40911,3011.01,289.36,55.8,0
16.6133899,40900,2380.9,368.29,55.8,0
16.6134049,40898,1679.08,440.1,55.8,0
16.613418,40888,917.27,503.34,55.8,0
16.6134311,40893,107.74,557.32,55.8,0
16.6134445,40898,-737.03,602.27,55.8,0
16.6134577,40869,-1604.46,639.64,55.8,0
16.6134751,40882,-2482.37,671.49,55.8,0
16.6134898,40868,-3359.6,699.4,55.8,0
16.6135027,40859,-4226.29,723.91,55.8,0
16.6135154,40867,-5074.02,744.2,55.8,0
16.6135467,40868,-5895.69,758.95,55.8,0
16.6135994,40856,-6685.15,767.38,55.8,0
16.6136174,40874,-7436.89,769.13,55.8,0
16.6136319,40860,-8145.96,763.72,55.8,0
16.6136462,40876,-8807.8,750.66,55.8,0
16.6136594,40867,-9418.17,729.4,55.8,0
16.6136727,40855,-9973.24,699.54,55.8,0
16.6136864,40871,-10470.02,660.84,55.8,0
16.6136994,40880,-10906.45,613.46,55.9,0
16.6137124,40872,-11280.99,558.41,55.9,0
16.6137262,40856,-11592.42,497.38,55.9,0
16.6137396,40880,-11840.36,431.81,55.9,0
16.6137528,40883,-12025.38,363.49,55.9,0
16.6137659,40849,-12148.64,295.47,55.9,0
16.6137803,40859,-12212.13,230.49,55.9,0
16.6137931,40853,-12219.33,169.45,55.9,0
16.6138058,40863,-12175.13,112.1,55.9,0
16.6138183,40863,-12085.14,57.91,55.9,0
16.6138313,40856,-11955.01,6.42,55.9,0
16.6138456,40861,-11790.14,-42.55,55.9,0
16.6138599,40854,-11595.76,-88.72,56.0,0
16.6138734,40866,-11376.8,-131.56,56.0,0
16.6138865,40867,-11137.72,-170.75,56.0,0
16.6138997,40874,-10882.18,-206.19,56.0,0
16.6139127,40875,-10612.78,-237.54,56.0,0
16.6139261,40876,-10331.16,-264.47,56.0,0
16.6139394,40882,-10038.16,-287.07,56.0,0
16.6139535,40894,-9734.04,-305.7,56.0,0
16.6139669,40868,-9418.56,-320.77,56.0,0
16.6139798,40873,-9091.52,-333.07,56.0,0
16.613993,40876,-8753.42,-344.03,56.0,0
16.6140064,40872,-8405.73,-354.95,56.0,0
16.614019,40883,-8050.55,-366.24,56.0,1
16.6140317,40872,-7690.21,-377.37,56.0,0
16.6140442,40876,-7327.15,-387.88,56.0,0
16.6140574,40887,-6963.81,-397.92,56.0,0
16.6140705,40885,-6602.38,-407.39,56.0,0
16.6140831,40911,-6244.43,-415.48,56.0,0
16.6140957,40920,-5890.28,-421.14,56.0,0
16.6141083,40904,-5538.75,-423.23,56.0,0
16.614121,40866,-5187.78,-420.75,56.0,0
16.6141335,40834,-4836.49,-413.87,56.0,0
16.6141461,40835,-4487.24,-404.19,56.0,0
16.6141583,40815,-4146.27,-393.61,56.0,0
16.6141709,40820,-3822.79,-383.1,56.0,0
16.6260347,40798,-3527.5,-372.51,56.0,0
16.6264856,40775,-3271.56,-361.43,56.0,0
16.6461581,40759,-3066.16,-350.23,56.0,0
16.6471194,40735,-2922.47,-340.06,56.0,0
16.6659428,40725,-2851.44,-332.31,56.0,0
16.6660453,40738,-2863.17,-328.11,56.0,0
16.6859062,40719,-2965.76,-327.69,56.0,0
16.6860011,40722,-3164.19,-329.94,56.0,0
16.7067774,40713,-3459.96,-333.34,56.0,0
16.7070326,40709,-3851.16,-337.21,56.0,0
16.726567,40707,-4332.77,-341.62,56.0,0
16.7265981,40718,-4897.01,-346.79,56.0,0
16.7459209,40708,-5533.51,-353.05,56.0,0
16.7461503,40701,-6229.71,-360.95,56.0,0
16.7670445,40710,-6971.63,-370.9,56.0,0
16.7671957,40693,-7744.69,-382.85,56.0,0
16.7856389,40704,-8534.32,-396.53,56.0,0
16.7858354,40713,-9326.36,-411.71,56.0,0
16.8068187,40707,-10107.07,-427.89,56.0,0
16.8068425,40704,-10863.22,-444.26,56.0,0
16.8257489,40695,-11582.62,-460.37,56.0,0
16.8260618,40698,-12254.83,-476.37,56.0,0
16.8459885,40693,-12871.5,-492.43,56.0,0
16.8464076,40718,-13426.27,-507.83,56.0,0
16.8670676,40692,-13914.29,-521.01,56.0,0
16.8672854,40692,-14332.01,-530.87,56.0,0
16.885621,40699,-14677.49,-537.72,56.0,0
16.8858348,40702,-14950.47,-542.54,56.0,0
16.9059031,40715,-15151.84,-545.61,56.0,0
16.9061027,40743,-15282.73,-546.0,56.0,0
16.9262088,40719,-15343.81,-542.0,56.0,0
16.9262316,40701,-15335.32,-532.61,56.0,0
16.9458041,40701,-15258.35,-518.53,56.0,0
16.9459201,40721,-15115.93,-501.55,56.0,0
16.9658502,40727,-14912.56,-482.81,56.0,0
16.9664249,40744,-14653.04,-462.07,56.0,0
16.9857109,40717,-14341.65,-438.07,56.0,0
16.985951,40698,-13982.52,-409.45,56.0,0
17.00775,40669,-13581.04,-375.56,56.0,0
17.0078255,40664,-13145.2,-336.08,56.0,0
17.0261821,40651,-12685.93,-289.55,56.0,0
17.0262122,40637,-12216.47,-233.09,56.0,0
17.0461125,40650,-11751.19,-163.87,56.0,0
17.0462917,40637,-11304.33,-80.33,56.0,0
17.6641408,40633,-10888.71,17.36,56.0,0
17.6641816,40643,-10515.03,127.39,56.0,0
17.6642115,40631,-10191.35,246.8,56.0,0
17.6642376,40627,-9922.98,371.89,56.0,0
17.6642683,40632,-9712.56,497.93,56.0,0
17.6642958,40617,-9560.5,619.67,56.0,0
17.6643228,40609,-9465.36,732.39,56.1,0
17.6643499,40619,-9424.4,832.41,56.1,0
17.6643762,40634,-9433.78,917.6,56.2,0
17.6644022,40610,-9488.19,988.01,56.3,0
17.664428,40602,-9581.09,1045.15,56.4,0
17.6644541,40593,-9705.65,1090.1,56.5,0
17.6644814,40580,-9855.79,1122.67,56.6,0
17.6645167,40579,-10026.65,1142.18,56.8,0
17.6645714,40599,-10214.43,1148.97,56.9,0
17.6646227,40565,-10415.77,1145.08,57.1,0
17.6646616,40587,-10627.32,1133.27,57.3,0
17.6647038,40565,-10845.8,1115.82,57.5,0
17.664731,40575,-11068.09,1094.51,57.6,0
17.6647593,40568,-11291.16,1070.79,57.8,0
17.6647864,40577,-11512.0,1045.09,58.0,0
17.6648123,40578,-11727.37,1016.41,58.2,0
17.6648374,40583,-11933.57,982.89,58.4,0
17.6648637,40565,-12126.46,942.54,58.5,0
17.6648899,40580,-12301.85,893.3,58.7,0
17.6649152,40563,-12455.99,833.32,58.8,0
17.6649405,40569,-12585.81,761.88,59.0,0
17.6649659,40564,-12689.08,679.69,59.1,0
17.6649913,40575,-12764.38,588.63,59.2,0
17.665017,40565,-12810.84,491.21,59.4,0
17.6650438,40575,-12827.93,390.02,59.4,0
17.6650709,40551,-12815.44,287.53,59.5,0
17.6650982,40563,-12773.82,185.87,59.6,0
17.6651236,40564,-12704.31,86.74,59.6,0
17.6651492,40570,-12608.66,-8.12,59.7,0
17.665192,40583,-12488.51,-96.73,59.7,0
17.6652428,40560,-12344.95,-177.41,59.7,0
17.6652935,40560,-12178.83,-249.36,59.7,0
17.6653438,40581,-11991.22,-312.45,59.7,0
17.6654171,40552,-11783.57,-366.46,59.7,0
17.6654745,40565,-11557.6,-411.4,59.7,0
17.6655266,40567,-11315.41,-448.09,59.7,0
17.6655784,40569,-11059.3,-477.91,59.7,0
17.6656297,40570,-10791.44,-502.1,59.7,0
17.6656804,40575,-10513.58,-521.67,59.7,0
17.6657304,40546,-10227.23,-537.65,59.7,0
17.6657801,40571,-9934.04,-551.63,59.7,0
17.6658299,40558,-9636.12,-565.47,59.7,0
17.6658801,40565,-9335.74,-580.64,59.7,0
17.6659299,40558,-9035.09,-597.67,59.7,0
17.6659798,40576,-8736.15,-615.93,59.7,0
17.6660304,40577,-8440.35,-633.61,59.7,0
17.6660585,40566,-8148.33,-648.51,59.7,0
17.6660864,40562,-7860.08,-659.38,59.7,0
17.6661126,40570,-7575.6,-666.74,59.7,0
17.6661374,40559,-7295.19,-672.11,59.7,0
17.666162,40573,-7019.38,-676.71,59.7,0
17.6661873,40560,-6748.79,-680.81,59.7,0
17.6662121,40557,-6484.13,-684.29,59.7,0
17.6668197,40583,-6226.17,-687.38,59.7,0
17.6668521,40575,-5975.49,-690.28,59.7,0
17.6863287,40572,-5731.92,-692.55,59.7,0
17.6863579,40555,-5494.79,-693.48,59.7,0
17.7059569,40573,-5263.65,-693.13,59.7,0
17.7059825,40586,-5038.45,-691.64,59.7,0
17.7259588,40581,-4818.9,-687.86,59.7,0
17.7260534,40581,-4604.03,-679.76,59.7,0
17.7459606,40574,-4392.45,-666.12,59.7,0
17.7473117,40587,-4182.85,-647.2,59.7,0
17.7658639,40577,-3974.22,-624.2,59.7,0
17.7666496,40588,-3765.8,-598.36,59.7,0
17.7859154,40600,-3556.97,-570.1,59.7,0
17.7860936,40583,-3346.95,-539.1,59.7,0
17.8058731,40593,-3134.87,-505.35,59.7,0
17.8062604,40600,-2920.03,-469.88,59.7,0
17.8969906,40603,-2701.91,-434.08,59.7,0
17.8970254,40607,-2479.87,-399.05,59.7,0
17.897053,40597,-2253.17,-365.73,59.7,0
17.8970786,40597,-2021.29,-335.44,59.7,0
17.8971042,40607,-1784.36,-309.52,59.7,0
17.8971299,40599,-1543.1,-288.59,59.7,0
17.8971545,40612,-1298.62,-272.54,59.7,0
17.8971802,40603,-1052.19,-261.23,59.7,0
17.907125,40610,-805.12,-254.73,59.7,0
17.9073412,40623,-558.7,-252.43,59.7,0
17.926139,40616,-313.95,-252.42,59.7,0
17.9266784,40607,-71.48,-252.5,59.7,0
17.9459163,40610,168.05,-251.92,59.7,0
17.9467855,40610,403.54,-251.33,59.7,0
17.9659609,40618,633.44,-251.62,59.7,0
17.9664046,40622,856.16,-253.49,59.7,0
17.9860891,40629,1070.56,-257.31,59.7,0
17.9862474,40624,1276.11,-262.65,59.7,0
18.0068402,40622,1472.87,-268.61,59.7,1
18.0071593,40635,1661.12,-274.68,59.7,0
18.0257852,40639,1841.3,-280.4,59.7,0
18.0258368,40648,2014.28,-285.13,59.7,0
18.5529914,40639,2181.53,-288.47,59.7,0
18.5530302,40640,2344.8,-290.56,59.7,0
18.5530581,40632,2505.56,-292.0,59.7,0
18.553085,40642,2664.57,-293.7,59.7,0
18.553111,40633,2821.74,-295.62,59.7,0
18.5531368,40633,2976.31,-295.66,59.7,0
18.5531632,40603,3126.74,-290.65,59.7,0
18.5531891,40606,3270.23,-277.67,59.7,0
18.5532143,40582,3402.35,-254.07,59.7,0
18.5532392,40569,3516.98,-217.44,59.7,0
18.5532655,40590,3606.68,-166.1,59.7,0
18.5532916,40572,3663.61,-99.37,59.7,0
18.5533173,40589,3680.84,-17.96,59.7,0
18.5533431,40603,3653.36,75.59,59.7,0
18.5533686,40599,3578.89,177.46,59.7,0
18.5533936,40596,3458.22,283.48,59.7,0
18.5534189,40584,3294.6,389.49,59.7,0
18.5534437,40594,3092.69,491.12,59.7,0
18.5534744,40596,2857.88,584.25,59.7,0
18.5535009,40583,2596.03,665.63,59.6,0
18.5535302,40589,2313.24,732.93,59.6,0
18.5535561,40575,2015.31,784.81,59.5,0
18.5535819,40571,1707.36,821.1,59.4,0
18.5536077,40566,1393.47,843.01,59.3,0
18.5536335,40577,1076.61,852.94,59.2,0
18.553661,40584,759.1,854.0,59.1,0
18.5536878,40561,443.24,849.46,59.0,0
18.5537168,40565,131.32,841.93,58.8,0
18.5537428,40563,-174.83,832.68,58.7,0
18.553769,40554,-474.04,822.0,58.5,0
18.5537951,40574,-765.6,809.74,58.3,0
18.5538218,40571,-1048.8,795.65,58.1,0
18.5538483,40562,-1322.51,779.49,58.0,0
18.5538746,40560,-1585.21,760.87,57.8,0
18.5539009,40573,-1835.38,739.3,57.6,0
18.5539266,40573,-2071.55,714.52,57.4,0
18.5539542,40563,-2292.05,686.61,57.2,0
18.5539821,40557,-2495.2,655.59,57.1,0
18.5540081,40569,-2679.78,621.09,56.9,0
18.5540338,40565,-2845.14,583.15,56.7,0
18.5540595,40561,-2990.97,542.73,56.6,0
18.5540855,40554,-3117.26,501.1,56.4,0
18.5541108,40573,-3224.43,459.21,56.3,0
18.5541376,40566,-3313.15,417.98,56.2,0
18.5541637,40565,-3383.96,378.65,56.1,0
18.5541906,40553,-3437.3,342.09,56.0,0
18.5542162,40563,-3473.93,308.18,56.0,0
18.5542631,40555,-3495.07,276.12,55.9,0
18.5542916,40558,-3502.31,245.2,55.9,0
18.5543176,40552,-3497.44,214.81,55.9,0
18.5543426,40567,-3482.37,184.21,55.9,0
18.5660581,40569,-3458.74,152.91,55.9,0
18.5667199,40562,-3427.6,120.91,55.9,0
18.5857718,40573,-3389.28,88.13,55.9,0
18.585861,40571,-3343.64,54.29,55.9,0
18.606418,40564,-3290.2,19.69,55.9,0
18.6064403,40543,-3228.59,-14.79,55.9,0
18.6277612,40558,-3159.18,-49.02,55.9,0
18.6282619,40571,-3083.32,-83.47,55.9,0
18.6458407,40564,-3002.63,-117.89,55.9,0
18.6462964,40569,-2918.22,-151.3,55.9,0
18.6666121,40580,-2830.59,-182.77,55.9,0
18.666653,40570,-2739.66,-211.42,55.9,0
18.6881747,40579,-2644.78,-236.4,55.9,0
18.6882199,40587,-2544.99,-257.38,55.9,0
18.7062245,40577,-2439.12,-274.41,55.9,0
18.7062684,40580,-2325.9,-287.69,55.9,0
18.7259115,40570,-2204.39,-297.61,55.9,0
18.7260592,40568,-2074.46,-304.89,55.9,0
18.746159,40587,-1936.89,-310.19,55.9,0
18.7464896,40580,-1792.97,-313.49,55.9,0
18.7660362,40588,-1643.93,-314.09,55.9,0
18.7660565,40594,-1490.63,-311.53,55.9,0
18.7856766,40574,-1333.56,-306.11,55.9,0
18.7857828,40583,-1173.2,-298.9,55.9,0
18.8067833,40608,-1010.3,-291.3,55.9,0
18.8073045,40590,-845.51,-284.5,55.9,0
18.8260006,40593,-679.0,-279.19,55.9,0
18.8263017,40580,-510.83,-275.89,55.9,0
18.8463223,40595,-341.53,-275.16,55.9,0
18.8467557,40602,-172.11,-277.38,55.9,0
18.865846,40608,-3.51,-281.76,55.9,0
18.8676756,40615,163.97,-286.35,55.9,0
18.8860222,40609,330.84,-289.53,55.9,0
18.8863122,40592,498.02,-290.84,55.9,0
18.9072258,40601,666.01,-290.63,55.9,0
18.9072546,40609,834.45,-289.54,55.9,0
18.9295116,40610,1002.38,-288.0,55.9,0
18.9295562,40616,1168.86,-286.04,55.9,0
18.9457184,40616,1333.27,-283.49,55.9,0
18.9459043,40621,1495.35,-280.26,55.9,0
18.9657085,40604,1655.07,-276.42,55.9,0
18.9659532,40614,1812.23,-272.53,55.9,0
18.9861029,40616,1966.19,-269.19,55.9,0
18.9864689,40625,2116.0,-266.51,55.9,1
19.0058105,40607,2260.85,-264.43,55.9,0
19.0058479,40623,2400.0,-263.35,55.9,0
19.0261459,40630,2532.72,-263.63,55.9,0
19.0264169,40632,2658.63,-264.88,55.9,0
19.5694235,40633,2778.01,-266.24,55.9,0
19.5715551,40634,2891.71,-266.87,55.9,0
19.5729459,40632,3000.85,-266.18,55.9,0
19.5729931,40635,3106.51,-263.88,55.9,0
19.5730324,40612,3209.39,-260.46,55.9,0
19.5730739,40609,3309.29,-257.2,55.9,0
19.5731128,40610,3404.65,-254.8,55.9,0
19.573151,40600,3492.51,-251.79,55.9,0
19.5731882,40599,3569.05,-244.41,55.9,0
19.5732263,40575,3629.83,-227.8,55.9,0
19.5732647,40581,3669.85,-197.45,55.9,0
19.5733023,40560,3683.65,-149.85,55.9,0
19.5733396,40554,3665.51,-82.95,55.9,0
19.5733777,40550,3609.65,3.3,55.9,0
19.5734156,40550,3510.68,107.05,55.9,0
19.5734526,40541,3364.16,225.26,55.9,0
19.5734896,40552,3167.13,353.97,55.9,0
19.5735341,40541,2918.45,488.57,55.9,0
19.5735732,40541,2618.98,624.26,55.9,0
19.5736119,40533,2271.31,756.34,56.0,0
19.5736512,40533,1879.36,880.61,56.0,0
19.5736865,40535,1448.07,994.32,56.1,0
19.5737201,40515,983.11,1096.17,56.2,0
19.5737548,40502,490.42,1185.0,56.3,0
19.5737903,40520,-24.49,1259.57,56.4,0
19.5738247,40511,-556.57,1319.41,56.5,0
19.5738607,40507,-1100.82,1365.08,56.6,0
19.5738953,40487,-1652.19,1397.32,56.8,0
19.5739289,40484,-2206.14,1416.69,56.9,0
19.5739634,40485,-2759.1,1423.63,57.1,0
19.5739975,40482,-3308.35,1418.55,57.2,0
19.5740317,40479,-3851.59,1402.18,57.4,0
19.5740658,40473,-4386.65,1375.62,57.6,0
19.5741164,40473,-4911.37,1339.44,57.7,0
19.5741538,40459,-5423.72,1293.25,57.9,0
19.5741878,40467,-5921.87,1236.02,58.1,0
19.574221,40468,-6404.19,1166.98,58.2,0
19.5742557,40478,-6868.84,1086.49,58.4,0
19.5742893,40474,-7313.36,996.62,58.5,0
19.5743232,40479,-7734.51,900.8,58.6,0
19.574357,40468,-8128.52,802.31,58.8,0
19.5743907,40474,-8491.59,703.36,58.9,0
19.5744252,40458,-8820.37,605.2,59.0,0
19.5744595,40465,-9112.41,508.69,59.0,0
19.5744933,40478,-9366.21,414.74,59.1,0
19.5745281,40461,-9580.97,324.68,59.2,0
19.5745567,40467,-9756.24,239.87,59.2,0
19.5745824,40453,-9892.2,160.89,59.2,0
19.5746075,40459,-9989.89,87.56,59.2,0
19.5746318,40456,-10051.21,19.32,59.2,0
19.5746566,40464,-10078.7,-44.58,59.2,0
19.5746815,40460,-10075.05,-104.79,59.2,0
19.5747056,40471,-10042.75,-161.61,59.2,0
19.5861251,40478,-9983.82,-214.74,59.2,0
19.5861678,40461,-9899.58,-263.23,59.2,0
19.6069744,40459,-9790.99,-306.08,59.2,0
19.6076499,40460,-9659.27,-343.14,59.2,0
19.6295692,40457,-9506.32,-375.1,59.2,0
19.6296498,40457,-9334.6,-403.1,59.2,0
19.6524472,40461,-9146.89,-428.53,59.2,0
19.6525702,40471,-8945.99,-452.61,59.2,0
19.6674051,40475,-8734.23,-475.81,59.2,0
19.6683474,40468,-8513.11,-497.87,59.2,0
19.6859689,40466,-8283.45,-518.56,59.2,0
19.6873723,40481,-8045.79,-538.07,59.2,0
19.7062683,40458,-7800.64,-556.74,59.2,0
19.7067582,40461,-7548.65,-575.06,59.2,0
19.7266013,40451,-7291.09,-594.01,59.2,0
19.7266495,40482,-7030.0,-614.62,59.2,0
19.7462079,40468,-6767.54,-637.14,59.2,0
19.7465898,40497,-6505.19,-660.71,59.2,0
19.7663405,40480,-6243.24,-683.4,59.2,0
19.7663813,40492,-5980.94,-702.98,59.2,0
19.7862689,40483,-5716.89,-717.83,59.2,0
19.7863911,40505,-5449.54,-727.14,59.2,0
19.8088811,40487,-5177.34,-730.57,59.2,0
19.8091048,40507,-4898.81,-728.3,59.2,0
19.8856675,40502,-4612.67,-720.84,59.2,0
19.885702,40496,-4317.91,-708.42,59.2,0
19.8857283,40494,-4014.07,-691.5,59.2,0
19.8857524,40495,-3701.63,-671.68,59.2,0
19.8857775,40506,-3382.03,-650.99,59.2,0
19.8858026,40518,-3057.15,-630.72,59.2,0
19.886008,40499,-2728.78,-611.5,59.2,0
19.886285,40498,-2398.49,-593.71,59.2,0
19.9071557,40510,-2068.18,-577.73,59.2,0
19.9073208,40499,-1740.18,-563.92,59.2,0
19.9273141,40516,-1416.95,-552.44,59.2,0
19.9307236,40517,-1100.74,-542.71,59.2,0
19.9490178,40515,-793.21,-533.46,59.2,0
19.949495,40530,-495.33,-523.36,59.2,0
19.9669076,40533,-207.31,-511.33,59.2,0
19.9679288,40535,71.45,-496.46,59.2,0
19.9865993,40524,342.22,-478.35,59.2,1
19.9866494,40529,606.33,-457.29,59.2,0
20.0066468,40526,864.59,-434.2,59.2,0
20.0075204,40530,1117.17,-410.36,59.2,0
20.0260087,40533,1363.65,-386.97,59.2,0
20.0283625,40532,1603.35,-364.59,59.2,0
20.0454986,40543,1835.48,-343.66,59.2,0
20.0461843,40536,2059.39,-325.12,59.2,0
20.5920587,40551,2274.69,-309.98,59.2,0
20.5920799,40539,2481.3,-298.36,59.2,0
20.5920953,40558,2679.43,-289.86,59.2,0
20.5921103,40562,2869.59,-284.26,59.2,0
20.5921251,40576,3052.91,-281.15,59.2,0
20.5921396,40562,3231.27,-279.64,59.2,0
20.5921539,40562,3406.96,-278.86,59.2,0
20.5921686,40562,3581.89,-278.11,59.2,0
20.5921836,40545,3756.98,-276.56,59.2,0
20.5921977,40541,3931.77,-272.88,59.2,0
20.5922127,40524,4104.04,-265.04,59.2,0
20.5922281,40509,4269.61,-250.49,59.2,0
20.592243,40495,4422.3,-226.31,59.2,0
20.5922568,40489,4554.15,-189.18,59.2,0
20.5922705,40485,4656.02,-135.92,59.2,0
20.5922848,40476,4718.53,-64.26,59.2,0
20.5922978,40451,4732.85,26.53,59.2,0
20.5923123,40456,4691.0,135.09,59.2,0
20.5923255,40454,4586.03,258.09,59.2,0
20.5923387,40466,4412.81,391.55,59.2,0
20.5923519,40467,4168.94,531.79,59.2,0
20.5923652,40447,3855.23,674.91,59.2,0
20.5923843,40440,3475.26,815.89,59.2,0
20.5923987,40455,3034.32,949.24,59.2,0
20.5924122,40451,2539.02,1070.71,59.2,0
20.592426,40448,1997.33,1177.92,59.2,0
20.59244,40417,1418.22,1269.53,59.1,0
20.5924538,40427,810.64,1344.6,59.1,0
20.592468,40418,182.63,1402.76,59.0,0
20.5924823,40431,-458.68,1444.45,59.0,0
20.5924971,40411,-1106.69,1470.79,58.9,0
20.5925107,40399,-1755.17,1483.27,58.9,0
20.5925252,40390,-2398.83,1483.23,58.8,0
20.5925392,40398,-3033.73,1471.26,58.7,0
20.5925534,40398,-3657.0,1447.61,58.6,0
20.5925695,40403,-4266.1,1412.85,58.5,0
20.592583,40395,-4858.21,1367.79,58.5,0
20.5925966,40399,-5430.13,1313.0,58.4,0
20.5926111,40392,-5978.45,1248.63,58.3,0
20.5926249,40410,-6499.71,1174.78,58.2,0
20.5926395,40409,-6990.26,1092.11,58.1,0
20.5926539,40409,-7446.07,1001.82,58.0,0
20.592668,40397,-7862.87,905.21,58.0,0
20.5926822,40402,-8236.84,803.53,57.9,0
20.5926962,40399,-8565.09,698.0,57.8,0
20.59271,40408,-8845.84,590.1,57.8,0
20.5927239,40400,-9078.12,481.81,57.7,0
20.5927374,40401,-9261.71,375.29,57.6,0
20.5927507,40394,-9397.16,272.38,57.6,0
20.5927649,40391,-9486.01,174.56,57.6,0
20.5927783,40388,-9530.84,82.81,57.5,0
20.5927921,40389,-9535.2,-2.42,57.5,0
20.5928064,40398,-9503.31,-80.83,57.5,0
20.5928201,40395,-9439.45,-152.12,57.5,0
20.6075871,40395,-9347.57,-216.34,57.5,0
20.6076815,40400,-9231.16,-273.87,57.5,0
20.6259484,40401,-9093.18,-325.18,57.5,0
20.6260071,40394,-8936.12,-370.79,57.5,0
20.6459975,40404,-8762.07,-411.67,57.5,0
20.6461271,40400,-8572.91,-449.11,57.5,0
20.6657697,40394,-8370.29,-483.95,57.5,0
20.6658312,40413,-8155.76,-516.44,57.5,0
20.6857201,40398,-7930.73,-546.65,57.5,0
20.685825,40403,-7696.39,-574.88,57.5,0
20.7056585,40399,-7453.87,-601.53,57.5,0
20.7062411,40419,-7204.41,-626.62,57.5,0
20.7255585,40410,-6949.01,-649.55,57.5,0
20.745974,40405,-6688.3,-669.68,57.5,0
20.7461112,40414,-6422.68,-686.65,57.5,0
20.7665637,40418,-6152.65,-700.49,57.5,0
20.766755,40431,-5878.56,-711.53,57.5,0
20.7865351,40430,-5600.28,-719.93,57.5,0
20.7869988,40428,-5317.07,-725.18,57.5,0
20.8061576,40428,-5027.94,-726.77,57.5,0
20.8062904,40421,-4732.13,-725.17,57.5,0
20.8267901,40421,-4429.62,-721.55,57.5,0
20.8269238,40420,-4121.32,-716.7,57.5,0
20.84592,40431,-3809.0,-710.84,57.5,0
20.8462368,40454,-3494.68,-703.88,57.5,0
20.8669919,40438,-3179.84,-695.61,57.5,0
20.8671891,40451,-2865.0,-685.74,57.5,0
20.8864262,40448,-2550.05,-673.7,57.5,0
20.8868093,40463,-2234.58,-658.93,57.5,0
20.9061067,40439,-1917.99,-641.12,57.5,0
20.9065603,40451,-1599.93,-620.23,57.5,0
20.925684,40461,-1280.67,-596.64,57.5,0
20.9257863,40463,-960.92,-571.3,57.5,0
20.9468409,40439,-641.51,-545.68,57.5,0
20.9468766,40473,-323.54,-521.24,57.5,0
20.9667741,40452,-8.49,-498.73,57.5,0
20.9668547,40460,302.0,-478.47,57.5,0
20.9862565,40472,606.29,-461.31,57.5,0
20.9863354,40472,902.91,-448.25,57.5,0
21.0062511,40463,1190.88,-439.49,57.5,0
21.0067956,40483,1469.55,-434.51,57.5,0
21.0265255,40468,1738.52,-432.33,57.5,0
21.0266315,40485,1997.61,-431.62,57.5,0
21.0459932,40484,2246.85,-431.0,57.5,0
21.0463884,40489,2486.6,-429.44,57.5,0
21.6077951,40491,2717.56,-426.58,57.5,0
21.6078293,40499,2940.69,-422.35,57.5,0
21.6078568,40477,3157.06,-416.63,57.5,0
21.6078837,40490,3367.4,-409.59,57.5,0
21.607909,40505,3571.78,-401.83,57.5,1
21.6079344,40502,3770.0,-393.67,57.5,0
21.6079595,40504,3962.14,-384.59,57.5,0
21.6079844,40508,4148.57,-373.6,57.5,0
21.6080092,40516,4329.82,-360.31,57.5,0
21.6080334,40531,4506.62,-345.37,57.5,0
21.6080581,40521,4680.2,-329.85,57.5,0
21.6080826,40520,4852.13,-314.38,57.5,0
21.6081065,40514,5023.75,-299.15,57.5,0
21.6081315,40507,5195.5,-284.24,57.5,0
21.6081556,40501,5366.47,-269.39,57.5,0
21.6081796,40487,5534.26,-253.62,57.5,0
21.608204,40484,5694.88,-234.94,57.5,0
21.6082283,40454,5842.81,-210.24,57.5,0
21.6082531,40448,5970.98,-175.57,57.5,0
21.6082776,40431,6070.86,-126.85,57.5,0
21.6083024,40416,6132.75,-60.8,57.5,0
21.6083263,40429,6146.54,24.26,57.5,0
21.6083507,40418,6102.78,128.23,57.5,0
21.608375,40428,5993.87,249.17,57.5,0
21.6083996,40411,5814.93,383.07,57.5,0
21.6084236,40421,5563.93,524.34,57.5,0
21.6084478,40425,5241.66,666.95,57.5,0
21.6084718,40421,4851.69,805.5,57.5,0
21.6085127,40424,4400.17,935.47,57.5,0
21.6085741,40407,3895.25,1053.34,57.5,0
21.6086332,40411,3346.25,1156.64,57.5,0
21.6086918,40384,2762.61,1243.77,57.5,0
21.6087522,40405,2153.22,1314.1,57.5,0
21.608812,40391,1526.09,1368.05,57.5,0
21.6088995,40379,888.53,1406.92,57.5,0
21.6089614,40378,247.03,1432.15,57.5,0
21.6098446,40368,-393.05,1445.13,57.5,0
21.6099792,40348,-1027.59,1447.26,57.4,0
21.6100539,40353,-1653.84,1439.72,57.4,0
21.610123,40371,-2270.27,1423.2,57.4,0
21.6101893,40355,-2875.63,1398.3,57.4,0
21.610397,40365,-3468.17,1365.52,57.4,0
21.6104711,40374,-4045.33,1324.71,57.4,0
21.6105356,40367,-4603.71,1275.29,57.4,0
21.6105876,40371,-5139.04,1216.6,57.4,0
21.6106131,40375,-5646.56,1147.69,57.4,0
21.6106387,40366,-6121.4,1067.66,57.4,0
21.610664,40378,-6558.88,976.37,57.3,0
21.6106892,40338,-6955.05,874.7,57.3,0
21.6107143,40365,-7307.24,764.25,57.3,0
21.6107392,40348,-7614.53,647.01,57.3,0
21.6107646,40350,-7877.43,525.4,57.3,0
21.61079,40355,-8097.57,402.07,57.3,0
21.6108233,40348,-8277.23,279.46,57.3,0
21.6108509,40378,-8418.93,159.9,57.3,0
21.6108761,40351,-8524.81,45.81,57.3,0
21.6256654,40355,-8596.48,-60.82,57.3,0
21.6257509,40345,-8635.52,-158.95,57.3,0
21.6472694,40345,-8644.07,-248.21,57.3,0
21.647516,40356,-8624.89,-328.59,57.3,0
21.6661126,40356,-8580.94,-400.32,57.3,0
21.6662749,40349,-8514.93,-463.65,57.3,0
21.6857069,40363,-8429.12,-518.74,57.3,0
21.6857974,40359,-8325.36,-565.51,57.3,0
21.7058364,40356,-8204.98,-604.03,57.3,0
21.7062016,40366,-8068.95,-635.1,57.3,0
21.725898,40364,-7917.98,-660.05,57.3,0
21.7259595,40364,-7752.54,-680.06,57.3,0
21.7454383,40364,-7572.94,-696.16,57.3,0
21.7456331,40380,-7379.49,-709.45,57.3,0
21.7654855,40380,-7172.33,-720.48,57.3,0
21.7656368,40375,-6951.2,-728.81,57.3,0
21.7863567,40375,-6715.67,-733.5,57.3,0
21.786458,40386,-6465.55,-734.19,57.3,0
21.8056959,40384,-6200.96,-731.17,57.3,0
21.8057807,40401,-5922.16,-724.97,57.3,0
21.8627023,40402,-5629.2,-716.22,57.3,0
21.8627268,40395,-5321.82,-705.51,57.3,0
21.8630142,40394,-4999.76,-693.17,57.3,0
21.8630587,40399,-4663.31,-679.06,57.3,0
21.8655391,40385,-4313.6,-663.01,57.3,0
21.8656689,40397,-3952.71,-645.47,57.3,0
21.8862812,40409,-3583.47,-627.36,57.3,0
21.8864434,40405,-3208.91,-609.16,57.3,0
21.9071115,40402,-2831.72,-590.73,57.3,0
21.9072563,40404,-2454.34,-572.11,57.3,0
21.9257543,40414,-2079.14,-553.87,57.3,0
21.9463283,40431,-1708.25,-536.07,57.3,0
21.9463618,40427,-1342.98,-517.85,57.3,0
21.9660923,40425,-983.58,-498.49,57.3,0
21.9661284,40433,-629.68,-478.24,57.3,0
21.9855347,40449,-280.64,-458.13,57.3,0
21.9857279,40426,64.42,-439.06,57.3,0
22.0057281,40439,406.37,-421.58,57.3,0
22.0062604,40437,745.61,-406.03,57.3,0
22.0260369,40443,1081.86,-392.11,57.3,0
22.026185,40454,1414.52,-378.99,57.3,0
22.5735491,40459,1742.99,-366.09,57.3,0
22.5736124,40467,2067.09,-353.31,57.3,0
22.5736637,40465,2387.17,-340.69,57.3,0
22.5737128,40460,2703.91,-328.36,57.3,1
22.5737605,40454,3017.71,-316.76,57.3,0
22.573808,40475,3328.29,-306.86,57.3,0
22.5738548,40472,3634.77,-299.95,57.3,0
22.5739014,40465,3936.11,-296.91,57.3,0
22.5739481,40461,4231.14,-298.05,57.3,0
22.5739953,40478,4518.22,-303.26,57.3,0
22.5740432,40455,4795.3,-312.23,57.3,0
22.5740903,40446,5059.92,-324.22,57.3,0
22.5741391,40440,5308.8,-337.25,57.3,0
22.5741866,40436,5537.5,-347.52,57.3,0
22.5742342,40407,5740.56,-349.7,57.3,0
22.5742809,40402,5911.53,-338.29,57.3,0
22.5743276,40382,6042.9,-309.34,57.3,0
22.5743741,40384,6126.39,-261.07,57.3,0
22.5744211,40381,6153.66,-193.43,57.3,0
22.5744675,40392,6117.43,-107.29,57.3,0
22.5745132,40380,6012.54,-4.29,57.3,0
22.5745584,40388,5836.59,112.77,57.3,0
22.5746028,40376,5589.97,239.93,57.3,0
22.574648,40382,5275.48,372.5,57.3,0
22.5746926,40374,4897.99,505.21,57.3,0
22.5747364,40385,4463.97,633.16,57.3,0
22.5747817,40375,3981.28,752.49,57.3,0
22.5748925,40372,3458.75,859.92,57.3,0
22.5749718,40373,2905.69,952.35,57.3,0
22.575022,40348,2331.2,1027.48,57.3,0
22.5750689,40365,1743.63,1084.23,57.4,0
22.5751151,40359,1150.26,1122.51,57.5,0
22.5751617,40362,557.59,1143.13,57.5,0
22.5752094,40349,-28.42,1147.96,57.6,0
22.5752576,40353,-602.4,1139.62,57.8,0
22.5753052,40359,-1159.78,1120.78,57.9,0
22.5753522,40363,-1696.48,1093.31,58.0,0
22.5753995,40363,-2208.56,1058.17,58.1,0
22.5754468,40371,-2692.02,1015.75,58.3,0
22.5754942,40350,-3142.87,966.21,58.4,0
22.575541,40361,-3557.62,909.21,58.6,0
22.5755895,40350,-3933.74,844.14,58.8,0
22.5756378,40363,-4269.83,771.27,58.9,0
22.5756865,40344,-4565.39,692.17,59.1,0
22.575732,40371,-4820.71,609.05,59.2,0
22.5757763,40363,-5036.52,523.89,59.4,0
22.5758215,40350,-5213.61,438.19,59.5,0
22.5758659,40358,-5353.02,353.07,59.7,0
22.5759118,40362,-5456.29,269.74,59.8,0
22.5759569,40346,-5525.46,189.96,60.0,0
22.5760017,40345,-5563.01,115.57,60.1,0
22.5760464,40351,-5572.06,47.51,60.2,0
22.5760907,40356,-5556.27,-14.29,60.3,0
22.5761348,40359,-5519.16,-70.18,60.4,0
22.5864343,40356,-5463.73,-120.4,60.4,0
22.5867232,40368,-5392.28,-165.11,60.5,0
22.6069142,40358,-5306.44,-204.77,60.5,0
22.6069341,40358,-5207.35,-240.28,60.6,0
22.6257321,40346,-5096.02,-273.07,60.6,0
22.6260544,40349,-4973.88,-304.7,60.6,0
22.6457061,40372,-4842.87,-336.25,60.6,0
22.6460289,40372,-4704.77,-368.0,60.6,0
22.6657467,40368,-4560.5,-399.85,60.6,0
22.6659488,40383,-4410.01,-431.47,60.6,0
22.6868496,40395,-4252.43,-461.86,60.6,0
22.6870323,40379,-4086.08,-489.2,60.6,0
22.7054586,40370,-3908.92,-512.13,60.6,0
22.7055558,40392,-3719.4,-530.27,60.6,0
22.7256777,40384,-3516.82,-543.59,60.6,0
22.7260043,40382,-3301.1,-552.25,60.6,0
22.7457132,40376,-3072.71,-556.93,60.6,0
22.745817,40383,-2832.98,-558.6,60.6,0
22.7654767,40399,-2583.91,-558.08,60.6,0
22.7657364,40400,-2327.58,-555.37,60.6,0
22.7853581,40389,-2065.56,-549.78,60.6,0
22.7854997,40394,-1799.08,-541.16,60.6,0
22.8059015,40390,-1529.48,-530.78,60.6,0
22.8062054,40396,-1258.44,-520.56,60.6,0
22.8257852,40407,-987.82,-511.56,60.6,0
22.8259459,40421,-719.15,-503.57,60.6,0
22.8455176,40403,-453.17,-495.8,60.6,0
22.8456248,40416,-189.91,-488.17,60.6,0
22.8660083,40413,70.84,-481.55,60.6,0
22.8661617,40392,329.1,-476.93,60.6,0
22.8864237,40408,584.24,-474.51,60.6,0
22.8868467,40414,834.81,-473.79,60.6,0
22.9056421,40409,1079.0,-474.07,60.6,0
22.9058675,40439,1315.3,-474.73,60.6,0
22.925659,40432,1543.01,-474.91,60.6,0
22.9259281,40419,1762.56,-473.43,60.6,0
22.9460349,40441,1975.01,-469.49,60.6,1
22.9480898,40441,2181.58,-462.83,60.6,0
22.9664814,40432,2383.64,-453.23,60.6,0
22.9665155,40456,2582.63,-440.66,60.6,0
22.9860515,40440,2779.96,-425.36,60.6,0
22.9867432,40453,2976.89,-407.67,60.6,0
23.0059474,40448,3174.46,-388.27,60.6,0
23.006553,40457,3373.31,-367.87,60.6,0
23.0266443,40441,3573.66,-346.62,60.6,0
23.0267317,40427,3774.97,-324.2,60.6,0
23.6625309,40413,3975.27,-300.12,60.6,0
23.6625759,40405,4170.6,-273.53,60.6,0
23.6626071,40384,4354.91,-242.78,60.6,0
23.6626341,40379,4520.32,-205.46,60.6,0
23.6626606,40363,4657.57,-158.94,60.6,0
23.6626865,40358,4756.72,-100.86,60.6,0
23.6627142,40349,4807.85,-29.78,60.6,0
23.6627407,40373,4801.97,54.61,60.6,0
23.6627679,40355,4732.23,151.79,60.6,0
23.6627942,40366,4594.71,260.05,60.6,0
23.6628228,40353,4388.64,376.09,60.6,0
23.6628503,40363,4115.99,495.34,60.6,0
23.6628766,40350,3781.07,612.59,60.6,0
23.6629087,40350,3389.95,722.73,60.6,0
23.6629388,40348,2949.92,821.5,60.6,0
23.6629657,40339,2468.86,905.86,60.7,0
23.6629948,40342,1954.9,974.13,60.8,0
23.6630222,40339,1416.07,1026.15,60.9,0
23.6630497,40331,860.15,1062.81,61.0,0
23.6630763,40327,294.46,1085.26,61.2,0
23.6631023,40309,-274.49,1094.54,61.4,0
23.6631291,40318,-841.39,1091.81,61.6,0
23.6631556,40327,-1402.05,1078.89,61.8,0
23.6631837,40311,-1952.89,1058.42,62.1,0
23.6632107,40324,-2490.4,1033.18,62.3,0
23.6632372,40326,-3011.12,1005.18,62.6,0
23.6632641,40320,-3511.39,975.04,62.8,0
23.6632914,40316,-3987.49,941.73,63.1,0
23.6633172,40334,-4435.83,903.48,63.4,0
23.6633434,40322,-4853.04,859.42,63.7,0
23.6633706,40327,-5235.88,809.61,64.0,0
23.6633977,40324,-5581.43,753.98,64.2,0
23.6634253,40320,-5887.37,692.57,64.5,0
23.663452,40322,-6152.19,626.09,64.7,0
23.6634798,40330,-6375.25,555.99,65.0,0
23.6635058,40321,-6556.58,484.03,65.2,0
23.6635311,40328,-6696.68,411.77,65.4,0
23.6635561,40319,-6796.59,340.43,65.6,0
23.6635819,40339,-6857.78,271.09,65.8,0
23.6636078,40326,-6882.02,204.92,65.9,0
23.6636341,40332,-6871.11,143.14,66.0,0
23.6636597,40339,-6826.85,86.37,66.1,0
23.663685,40347,-6751.06,34.27,66.2,0
23.6637104,40338,-6645.23,-14.03,66.2,0
23.6637358,40357,-6510.57,-59.66,66.2,0
23.6637613,40352,-6348.07,-103.65,66.2,0
23.66379,40355,-6158.5,-146.6,66.2,0
23.6638153,40344,-5942.64,-188.9,66.2,0
23.6638411,40356,-5701.74,-231.26,66.2,0
23.6638678,40352,-5437.69,-274.81,66.2,0
23.6638936,40343,-5153.01,-320.37,66.2,0
23.663919,40348,-4850.81,-367.84,66.2,0
23.6639438,40356,-4534.87,-416.21,66.2,0
23.66397,40347,-4209.23,-464.0,66.2,0
23.6639952,40355,-3877.86,-509.96,66.2,0
23.6640379,40365,-3544.48,-553.5,66.2,0
23.6640642,40368,-3212.2,-594.35,66.2,0
23.6640902,40367,-2883.16,-631.97,66.2,0
23.6641155,40376,-2558.6,-665.53,66.2,0
23.6641408,40374,-2239.02,-694.06,66.2,0
23.664166,40373,-1924.43,-716.77,66.2,0
23.6665471,40379,-1614.6,-733.72,66.2,0
23.6667102,40376,-1309.34,-745.95,66.2,0
23.6861882,40391,-1008.51,-754.87,66.2,0
23.6862091,40392,-711.87,-761.39,66.2,0
23.7058103,40399,-418.85,-765.73,66.2,0
23.7066489,40390,-128.55,-767.67,66.2,0
23.7255564,40394,159.97,-767.06,66.2,0
23.7269243,40403,447.24,-763.64,66.2,0
23.7462591,40391,733.4,-757.1,66.2,0
23.7465204,40401,1018.12,-747.58,66.2,0
23.7662668,40409,1300.7,-735.58,66.2,0
23.7662997,40411,1580.26,-720.99,66.2,0
23.7857556,40412,1856.17,-703.27,66.2,0
23.7858864,40405,2127.95,-682.55,66.2,0
23.805773,40423,2395.09,-659.69,66.2,0
23.8066136,40427,2657.07,-635.29,66.2,0
23.8959147,40420,2913.66,-609.61,66.2,0
23.8959348,40421,3164.89,-583.45,66.2,0
23.89595,40426,3410.71,-558.47,66.2,0
23.8959647,40434,3650.79,-536.1,66.2,0
23.8959794,40439,3884.83,-516.33,66.2,0
23.8959931,40426,4112.71,-498.13,66.2,0
23.8960069,40443,4334.39,-481.13,66.2,0
23.896021,40465,4549.82,-465.63,66.2,0
23.9056256,40461,4759.52,-451.54,66.2,0
23.9057726,40460,4964.95,-438.34,66.2,0
23.9268001,40459,5168.08,-425.72,66.2,0
23.9268263,40467,5370.71,-413.61,66.2,0
23.9456787,40471,5574.16,-402.16,66.2,1
23.9459511,40464,5779.23,-391.79,66.2,0
23.9658514,40485,5986.29,-383.05,66.2,0
23.9660297,40476,6195.34,-376.29,66.2,0
23.9867806,40492,6406.24,-371.02,66.2,0
23.9874287,40460,6618.68,-365.9,66.2,0
24.0069291,40466,6831.71,-359.85,66.2,0
24.0069611,40459,7043.01,-352.52,66.2,0
24.0255413,40449,7248.78,-343.32,66.2,0
24.0273628,40416,7443.8,-330.16,66.2,0
24.0457929,40408,7621.11,-309.55,66.2,0
24.0459662,40387,7771.78,-277.63,66.2,0
24.5338853,40389,7885.2,-231.26,66.2,0
24.5339061,40379,7950.1,-167.82,66.2,0
24.5339224,40367,7955.69,-85.03,66.2,0
24.5339372,40369,7892.57,17.6,66.2,0
24.5339521,40372,7753.37,137.69,66.2,0
24.5339673,40364,7533.42,270.55,66.2,0
24.5339813,40376,7231.24,410.62,66.2,0
24.5340001,40343,6848.39,552.62,66.2,0
24.5340152,40369,6389.08,691.88,66.2,0
24.5340291,40343,5859.42,824.29,66.2,0
24.5340435,40347,5267.04,946.45,66.2,0
24.5340579,40328,4620.44,1055.47,66.1,0
24.5340732,40333,3928.39,1148.96,66.1,0
24.5340879,40330,3199.5,1225.44,66.0,0
24.5341026,40333,2442.29,1284.49,65.9,0
24.5341177,40317,1665.34,1327.02,65.9,0
24.5341316,40307,877.05,1355.17,65.8,0
24.5341454,40315,85.1,1371.55,65.7,0
24.5341596,40294,-703.8,1378.35,65.6,0
24.5341736,40300,-1483.87,1376.94,65.5,0
24.5341874,40313,-2250.13,1368.2,65.4,0
24.5342013,40316,-2997.87,1353.01,65.3,0
24.5342149,40309,-3721.96,1331.85,65.2,0
24.5342294,40313,-4416.8,1304.12,65.1,0
24.5342443,40316,-5076.69,1268.38,65.0,0
24.5342588,40330,-5696.06,1223.39,64.9,0
24.5342728,40327,-6269.31,1168.84,64.8,0
24.5342879,40329,-6790.86,1105.18,64.7,0
24.5343023,40312,-7255.59,1033.12,64.7,0
24.534317,40329,-7659.49,953.47,64.6,0
24.5343311,40337,-7999.99,867.38,64.5,0
24.5343457,40320,-8275.68,776.83,64.4,0
24.5343599,40312,-8486.22,684.19,64.4,0
24.5343737,40305,-8632.94,591.36,64.3,0
24.5343891,40337,-8719.06,499.74,64.3,0
24.5344028,40325,-8748.95,410.43,64.2,0
24.534417,40336,-8727.07,324.49,64.2,0
24.5344309,40315,-8657.57,242.91,64.2,0
24.534445,40326,-8544.69,165.98,64.2,0
24.5344588,40327,-8393.03,92.98,64.2,0
24.5344725,40314,-8207.5,22.7,64.2,0
24.5344863,40317,-7993.27,-45.99,64.2,0
24.5344998,40319,-7755.78,-113.69,64.2,0
24.5345134,40314,-7500.63,-180.61,64.2,0
24.5345275,40322,-7233.21,-246.98,64.2,0
24.5345413,40320,-6958.49,-313.12,64.2,0
24.5345549,40344,-6680.6,-378.88,64.2,0
24.5460041,40337,-6402.38,-443.3,64.2,0
24.5460616,40343,-6125.1,-504.76,64.2,0
24.565779,40326,-5848.79,-562.11,64.2,0
24.5657987,40341,-5573.04,-615.03,64.2,0
24.5864544,40332,-5297.56,-663.01,64.2,0
24.5864811,40348,-5022.25,-705.07,64.2,0
24.6063167,40350,-4746.99,-740.47,64.2,0
24.607074,40359,-4471.29,-769.14,64.2,0
24.6257635,40346,-4194.22,-791.31,64.2,0
24.6260928,40358,-3914.66,-807.1,64.2,0
24.6459001,40359,-3631.68,-816.78,64.2,0
24.6461239,40358,-3344.63,-821.26,64.2,0
24.6654932,40369,-3053.08,-821.76,64.2,0
24.6662848,40376,-2756.72,-819.29,64.2,0
24.6859536,40380,-2455.11,-814.67,64.2,0
24.6873899,40387,-2147.5,-808.54,64.2,0
24.7058725,40393,-1832.88,-800.92,64.2,0
24.7059927,40389,-1510.06,-791.19,64.2,0
24.7260172,40396,-1177.98,-778.75,64.2,0
24.7263289,40384,-836.07,-763.3,64.2,0
24.7460773,40401,-484.55,-745.03,64.2,0
24.7461848,40396,-124.44,-724.73,64.2,0
24.7660242,40394,242.6,-703.98,64.2,0
24.7666451,40427,614.56,-684.78,64.2,0
24.7858843,40412,989.51,-668.12,64.2,0
24.7865219,40405,1366.02,-653.33,64.2,0
24.8058633,40419,1742.78,-639.41,64.2,0
24.8060118,40409,2118.1,-626.14,64.2,0
24.8257958,40424,2489.99,-613.96,64.2,0
24.8258852,40426,2856.33,-603.48,64.2,0
24.8458543,40425,3215.24,-594.99,64.2,0
24.8462646,40425,3565.1,-588.24,64.2,0
24.8666719,40427,3904.44,-582.62,64.2,0
24.8667616,40429,4231.76,-577.4,64.2,0
24.8878628,40432,4545.55,-571.84,64.2,0
24.8878826,40422,4844.37,-565.45,64.2,0
24.9057112,40445,5126.78,-558.14,64.2,0
24.9057303,40448,5391.6,-549.78,64.2,0
24.9255694,40445,5638.39,-539.76,64.2,0
24.9256667,40461,5867.59,-527.17,64.2,0
24.9455447,40456,6080.39,-511.12,64.2,1
24.9457273,40461,6278.55,-491.28,64.2,0
24.9662278,40453,6464.06,-468.37,64.2,0
24.9662473,40461,6638.64,-443.63,64.2,0
24.9854667,40464,6803.56,-418.38,64.2,0
24.9857789,40469,6959.68,-393.81,64.2,0
25.0056703,40492,7107.83,-370.57,64.2,0
25.005929,40482,7249.23,-348.4,64.2,0
25.0254405,40474,7385.62,-326.56,64.2,0
25.0258032,40476,7518.62,-304.52,64.2,0
25.6004217,40475,7649.05,-282.59,64.2,0
25.6004415,40478,7776.71,-261.71,64.2,0
25.6004566,40460,7900.54,-242.43,64.2,0
25.6004711,40442,8018.4,-223.88,64.2,0
25.600485,40440,8126.63,-203.62,64.2,0
25.6004987,40417,8219.73,-178.03,64.2,0
25.6005262,40407,8290.58,-143.06,64.2,0
25.6005465,40413,8330.82,-95.5,64.2,0
25.6005601,40402,8331.64,-33.31,64.2,0
25.6005743,40390,8284.86,44.56,64.2,0
25.600588,40390,8183.4,138.03,64.2,0
25.6006017,40401,8021.7,245.66,64.2,0
25.6006148,40388,7796.29,364.57,64.2,0
25.6006294,40402,7506.25,490.74,64.2,0
25.6006445,40401,7153.32,619.55,64.2,0
25.6006633,40394,6741.81,746.18,64.2,0
25.6006782,40390,6278.11,865.7,64.2,0
25.6006919,40387,5769.9,973.42,64.1,0
25.6007069,40380,5225.36,1065.89,64.0,0
25.6007206,40373,4652.62,1141.27,63.9,0
25.6007345,40382,4059.37,1199.05,63.8,0
25.600748,40367,3452.75,1240.24,63.7,0
25.6007614,40359,2839.29,1267.22,63.5,0
25.6007755,40335,2224.51,1282.41,63.3,0
25.6007893,40351,1612.35,1287.3,63.1,0
25.6008034,40353,1005.33,1282.92,62.9,0
25.6008174,40349,405.4,1270.3,62.7,0
25.6008313,40353,-185.3,1250.53,62.5,0
25.6008449,40340,-764.26,1224.37,62.3,0
25.6008582,40358,-1328.71,1191.94,62.1,0
25.6008717,40362,-1875.59,1152.79,61.8,0
25.6008851,40359,-2401.21,1106.09,61.6,0
25.600899,40375,-2901.15,1051.08,61.4,0
25.6009123,40362,-3370.47,987.54,61.1,0
25.600926,40366,-3804.09,915.79,60.9,0
25.6009402,40371,-4197.33,836.67,60.7,0
25.6009534,40364,-4546.29,751.66,60.5,0
25.6009675,40356,-4848.1,662.33,60.3,0
25.6009841,40358,-5101.25,569.56,60.1,0
25.6009979,40342,-5305.9,474.08,60.0,0
25.6010117,40350,-5463.94,377.16,59.8,0
25.6010383,40348,-5578.78,280.41,59.7,0
25.6010551,40364,-5654.66,185.2,59.6,0
25.6010698,40358,-5695.9,92.6,59.5,0
25.6010839,40362,-5706.25,3.7,59.5,0
25.6010974,40345,-5688.92,-80.58,59.4,0
25.6011116,40359,-5646.95,-160.14,59.4,0
25.6011261,40354,-5583.45,-235.83,59.4,0
25.6011506,40360,-5501.43,-308.29,59.4,0
25.6011694,40348,-5403.64,-377.33,59.4,0
25.601184,40366,-5292.58,-442.36,59.4,0
25.601198,40370,-5170.38,-502.85,59.4,0
25.6012119,40373,-5038.44,-558.27,59.4,0
25.6012257,40382,-4897.16,-608.0,59.4,0
25.6012392,40361,-4746.13,-651.32,59.4,0
25.605695,40362,-4584.77,-687.73,59.4,0
25.6057188,40383,-4413.0,-717.34,59.4,0
25.6268092,40363,-4231.28,-740.44,59.4,0
25.6269734,40383,-4040.27,-757.1,59.4,0
25.6466145,40374,-3840.69,-767.23,59.4,0
25.6467167,40363,-3633.39,-770.88,59.4,0
25.6469283,40364,-3419.63,-768.6,59.4,0
25.6657686,40381,-3201.33,-761.3,59.4,0
25.6857684,40357,-2980.79,-749.15,59.4,0
25.6861613,40380,-2760.37,-731.84,59.4,0
25.7055164,40363,-2542.36,-709.69,59.4,0
25.7056205,40375,-2328.87,-684.32,59.4,0
25.7257664,40394,-2121.62,-657.89,59.4,0
25.7259322,40367,-1921.57,-631.91,59.4,0
25.7458735,40371,-1728.99,-606.94,59.4,0
25.7463741,40379,-1544.04,-583.45,59.4,0
25.7661967,40389,-1366.99,-561.9,59.4,0
25.7663785,40381,-1197.8,-542.3,59.4,0
25.7856124,40401,-1035.81,-524.09,59.4,0
25.7857035,40393,-879.74,-506.47,59.4,0
25.8055268,40406,-727.68,-488.79,59.4,0
25.8057047,40414,-577.23,-470.66,59.4,0
25.8739921,40413,-425.51,-451.6,59.4,0
25.8740763,40426,-269.27,-431.2,59.4,0
25.8740904,40400,-105.26,-409.87,59.4,0
25.8741034,40412,69.09,-389.31,59.4,0
25.874116,40427,255.16,-371.29,59.4,0
25.8741293,40414,453.34,-355.84,59.4,0
25.8857613,40435,663.42,-341.3,59.4,0
25.8858437,40438,885.01,-325.85,59.4,0
25.9069352,40428,1117.67,-308.52,59.4,0
25.9070252,40423,1360.89,-289.61,59.4,0
25.9257601,40433,1613.48,-270.41,59.4,0
25.9258619,40438,1873.47,-252.12,59.4,0
25.9458311,40437,2138.5,-235.12,59.4,0
25.9459202,40448,2406.27,-219.28,59.4,0
25.9657609,40428,2674.64,-204.7,59.4,0
25.965781,40463,2941.55,-191.7,59.4,0
25.9855953,40456,3205.21,-180.2,59.4,0
25.9857628,40448,3464.42,-169.67,59.4,0
26.0056437,40444,3718.43,-159.69,59.4,1
26.0057256,40457,3966.25,-150.47,59.4,0
26.0252992,40463,4206.63,-142.66,59.4,0
26.0254253,40453,4438.39,-137.16,59.4,0
26.0454154,40456,4660.59,-135.0,59.4,0
26.045718,40464,4872.25,-136.51,59.4,0
26.5527646,40461,5072.44,-140.84,59.4,0
26.5527852,40460,5260.31,-146.31,59.4,0
26.5528005,40445,5435.05,-151.14,59.4,0
26.5528161,40448,5595.42,-153.81,59.4,0
26.5528302,40438,5739.49,-152.75,59.4,0
26.5528437,40408,5864.42,-145.69,59.4,0
26.5528574,40392,5966.08,-129.67,59.4,0
26.552871,40388,6038.56,-101.85,59.4,0
26.552886,40391,6074.4,-59.73,59.4,0
26.5528997,40389,6065.81,-1.49,59.4,0
26.5529135,40379,6005.93,73.16,59.4,0
26.5531879,40384,5889.56,162.62,59.4,0
26.5532914,40390,5713.51,264.05,59.4,0
26.5533614,40365,5476.88,373.96,59.4,0
26.553415,40369,5180.83,488.22,59.4,0
26.5534403,40385,4828.04,602.38,59.4,0
26.5534716,40391,4422.85,712.4,59.4,0
26.5534981,40378,3971.6,814.83,59.4,0
26.5535237,40379,3482.45,906.87,59.4,0
26.5535491,40359,2964.34,986.32,59.4,0
26.5535741,40363,2425.92,1051.48,59.4,0
26.5536004,40352,1874.9,1101.34,59.4,0
26.5536263,40346,1317.73,1135.69,59.4,0
26.5536522,40357,759.64,1154.83,59.4,0
26.5536779,40346,204.97,1160.01,59.4,0
26.5537051,40335,-342.54,1153.49,59.3,0
26.553731,40339,-879.79,1137.38,59.3,0
26.5537564,40343,-1404.36,1112.91,59.3,0
26.5537815,40354,-1914.12,1080.88,59.3,0
26.5538072,40350,-2406.6,1041.86,59.3,0
26.5538326,40342,-2878.71,995.96,59.3,0
26.5538579,40358,-3327.04,942.94,59.2,0
26.5538831,40344,-3748.18,882.81,59.2,0
26.5539095,40370,-4138.78,816.2,59.2,0
26.5539351,40370,-4495.38,744.28,59.2,0
26.5539611,40350,-4814.27,668.84,59.2,0
26.5539864,40340,-5092.12,591.91,59.1,0
26.5540114,40345,-5327.03,514.91,59.1,0
26.554037,40360,-5518.9,438.69,59.1,0
26.5540624,40346,-5668.85,364.54,59.1,0
26.5540874,40322,-5778.78,293.98,59.1,0
26.5541127,40327,-5851.72,227.37,59.1,0
26.5541386,40351,-5892.1,163.79,59.1,0
26.5541648,40336,-5904.96,102.29,59.0,0
26.5541917,40337,-5894.94,42.35,59.0,0
26.5542179,40333,-5866.06,-16.3,59.0,0
26.5542433,40348,-5821.96,-73.72,59.0,0
26.5542688,40348,-5765.6,-129.58,59.0,0
26.5542942,40338,-5699.01,-183.21,59.0,0
26.5543187,40334,-5623.51,-234.38,59.0,0
26.5655507,40363,-5540.08,-283.3,59.0,0
26.5656619,40362,-5449.22,-329.93,59.0,0
26.5853801,40349,-5350.43,-373.97,59.0,0
26.5855355,40352,-5242.5,-415.35,59.0,0
26.6055564,40366,-5124.15,-454.27,59.0,0
26.6074762,40355,-4994.33,-490.53,59.0,0
26.6259155,40358,-4852.15,-523.45,59.0,0
26.6260353,40362,-4697.05,-552.67,59.0,0
26.6459084,40344,-4529.02,-578.67,59.0,0
26.6460191,40357,-4348.79,-602.45,59.0,0
26.6658119,40370,-4157.81,-624.78,59.0,0
26.6659943,40384,-3957.61,-645.09,59.0,0
26.6872721,40375,-3748.96,-661.36,59.0,0
26.6874062,40368,-3531.76,-671.49,59.0,0
26.7058221,40361,-3305.83,-674.69,59.0,0
26.7058417,40376,-3071.62,-671.66,59.0,0
26.7257941,40369,-2830.35,-664.12,59.0,0
26.7258642,40375,-2583.6,-654.11,59.0,0
26.7453809,40378,-2333.07,-643.16,59.0,0
26.7657217,40378,-2080.38,-631.88,59.0,0
26.7659251,40375,-1827.03,-620.15,59.0,0
26.7860034,40372,-1574.47,-607.69,59.0,0
26.7862121,40390,-1324.23,-594.66,59.0,0
26.8054799,40381,-1077.74,-581.5,59.0,0
26.8056181,40385,-836.07,-568.28,59.0,0
26.8257759,40395,-599.87,-554.61,59.0,0
26.8257954,40391,-369.43,-540.11,59.0,0
26.8457349,40392,-144.67,-524.74,59.0,0
26.8458726,40395,74.73,-508.7,59.0,0
26.8659869,40395,289.07,-492.29,59.0,0
26.8660738,40412,498.68,-475.76,59.0,0
26.8855572,40421,704.19,-459.24,59.0,0
26.8858577,40411,906.9,-442.82,59.0,0
26.9054468,40418,1108.65,-426.52,59.0,0
26.9056607,40424,1311.32,-410.0,59.0,0
26.9257407,40423,1516.58,-392.45,59.0,0
26.9258671,40425,1725.77,-373.55,59.0,0
26.9472294,40428,1939.85,-353.92,59.0,0
26.9473784,40426,2159.2,-334.65,59.0,0
26.9655089,40423,2383.63,-316.62,59.0,0
26.9655898,40437,2612.28,-300.41,59.0,0
26.9855272,40433,2843.81,-286.18,59.0,0
26.9856026,40432,3076.71,-273.85,59.0,0
27.0052501,40432,3309.34,-263.23,59.0,0
27.0054885,40458,3539.94,-253.84,59.0,1
27.0262432,40450,3767.07,-244.84,59.0,0
27.0262778,40455,3990.05,-235.5,59.0,0
27.0455745,40433,4208.73,-225.78,59.0,0
27.0457964,40445,4422.75,-216.32,59.0,0
27.6243464,40443,4630.96,-207.92,59.0,0
27.6244103,40477,4831.75,-200.84,59.0,0
27.6244445,40463,5023.97,-194.35,59.0,0
27.6244774,40452,5207.41,-187.23,59.0,0
27.6245105,40450,5382.24,-178.94,59.0,0
27.6245424,40473,5548.27,-169.96,59.0,0
27.624574,40459,5704.96,-160.74,59.0,0
27.6246063,40448,5851.75,-151.09,59.0,0
27.6246384,40436,5987.73,-140.2,59.0,0
27.6246714,40428,6110.89,-126.65,59.0,0
27.6247024,40396,6217.62,-108.32,59.0,0
27.6247344,40400,6302.51,-82.51,59.0,0
27.6247653,40388,6358.5,-46.57,59.0,0
27.6247965,40383,6377.58,1.45,59.0,0
27.6248283,40378,6351.8,62.61,59.0,0
27.6248591,40374,6274.03,136.95,59.0,0
27.6248903,40386,6138.6,223.15,59.0,0
27.6249212,40381,5942.07,318.59,59.0,0
27.6249525,40365,5683.57,419.98,59.0,0
27.6249827,40382,5364.58,523.77,59.0,0
27.6250199,40361,4988.48,626.25,59.0,0
27.6250526,40374,4560.22,723.71,59.0,0
27.6250842,40377,4086.06,813.02,59.0,0
27.6251161,40367,3573.41,892.13,59.0,0
27.6251478,40361,3030.6,959.74,59.0,0
27.6251799,40365,2466.15,1014.95,59.0,0
27.6252134,40351,1888.22,1057.84,59.0,0
27.6252484,40350,1304.32,1089.5,59.0,0
27.6252804,40341,720.92,1111.54,58.9,0
27.625312,40336,143.28,1125.6,58.9,0
27.6253433,40332,-424.63,1132.85,58.9,0
27.6253746,40329,-979.97,1133.89,58.9,0
27.6254566,40345,-1520.73,1129.21,58.9,0
27.6254899,40334,-2045.09,1119.42,58.8,0
27.6255242,40332,-2551.01,1104.55,58.8,0
27.6255565,40328,-3036.32,1083.47,58.8,0
27.6255892,40335,-3498.96,1054.4,58.8,0
27.6256211,40323,-3937.13,1015.63,58.7,0
27.6256538,40333,-4349.18,965.65,58.7,0
27.6256857,40336,-4733.63,903.74,58.7,0
27.6257175,40331,-5088.97,830.82,58.7,0
27.6257584,40348,-5413.54,749.12,58.6,0
27.6258164,40318,-5705.54,661.13,58.6,0
27.6258747,40328,-5963.49,568.51,58.6,0
27.6259323,40329,-6186.67,472.34,58.6,0
27.6259911,40350,-6375.15,374.52,58.6,0
27.6260882,40323,-6529.12,278.35,58.6,0
27.6262026,40338,-6648.74,187.1,58.5,0
27.6262733,40333,-6734.48,102.69,58.5,0
27.6263372,40340,-6787.19,25.74,58.5,0
27.6263801,40344,-6807.9,-43.92,58.5,0
27.6264156,40327,-6797.71,-106.66,58.5,0
27.6264493,40336,-6757.99,-163.08,58.5,0
27.6264839,40322,-6690.7,-214.2,58.5,0
27.6265177,40328,-6598.59,-260.85,58.5,0
27.6265515,40322,-6485.07,-303.14,58.5,0
27.626962,40337,-6353.95,-340.71,58.5,0
27.6269953,40339,-6208.91,-373.06,58.5,0
27.6464206,40334,-6052.92,-399.63,58.5,0
27.6465563,40332,-5888.18,-420.33,58.5,0
27.6656984,40347,-5716.37,-435.99,58.5,0
27.6657274,40340,-5538.71,-447.78,58.5,0
27.6854553,40340,-5355.89,-456.51,58.5,0
27.6856044,40347,-5168.24,-462.93,58.5,0
27.7055382,40343,-4975.89,-467.94,58.5,0
27.705635,40347,-4778.92,-472.15,58.5,0
27.7255917,40357,-4577.3,-475.56,58.5,0
27.7256679,40349,-4370.85,-477.98,58.5,0
27.7459524,40345,-4159.32,-479.67,58.5,0
27.7459697,40342,-3942.75,-481.24,58.5,0
27.7654996,40348,-3721.79,-482.99,58.5,0
27.7657277,40363,-3497.62,-484.3,58.5,0
27.7868335,40356,-3271.37,-483.89,58.5,0
27.7868557,40358,-3043.69,-480.92,58.5,0
27.8059736,40358,-2814.95,-476.02,58.5,0
27.806166,40367,-2585.43,-470.75,58.5,0
27.8690444,40373,-2355.26,-465.97,58.5,0
27.8690608,40379,-2124.22,-461.18,58.5,0
27.8690739,40358,-1891.66,-455.22,58.5,0
27.8690863,40372,-1656.99,-447.61,58.5,0
27.8690992,40360,-1420.21,-439.0,58.5,0
27.869111,40385,-1182.02,-430.31,58.5,0
27.8855729,40379,-943.32,-422.17,58.5,0
27.8856618,40381,-704.75,-415.05,58.5,0
27.9056067,40379,-466.64,-409.26,58.5,0
27.9057273,40368,-229.35,-405.1,58.5,0
27.9255457,40390,6.34,-403.06,58.5,0
27.925801,40380,239.38,-403.77,58.5,0
27.9458248,40373,468.6,-407.38,58.5,0
27.9659603,40388,692.81,-413.35,58.5,0
27.9676848,40392,910.71,-420.73,58.5,0
27.9853663,40394,1121.35,-428.34,58.5,0
27.9853871,40396,1324.39,-435.15,58.5,0
28.0053069,40393,1520.03,-440.71,58.5,0
28.0055213,40395,1708.67,-445.17,58.5,0
28.0258319,40389,1890.65,-448.6,58.5,0
28.0259658,40381,2065.89,-450.72,58.5,1
28.6307235,40403,2233.78,-451.17,58.5,0
28.6307438,40396,2393.37,-449.61,58.5,0
28.6307589,40391,2543.87,-445.52,58.5,0
28.6307733,40400,2684.72,-438.36,58.5,0
28.6307882,40404,2815.52,-428.02,58.5,0
28.630802,40408,2936.16,-414.48,58.5,0
28.630816,40411,3047.1,-397.41,58.5,0
28.6308297,40405,3149.32,-376.94,58.5,0
28.6308431,40415,3244.04,-354.18,58.5,0
28.6308576,40430,3332.64,-330.7,58.5,0
28.630871,40430,3416.91,-307.38,58.5,0
28.6308848,40424,3499.2,-283.97,58.5,0
28.6308988,40410,3581.99,-260.19,58.5,0
28.6309126,40426,3667.06,-236.56,58.5,0
28.6309264,40419,3755.11,-214.0,58.5,0
28.6309398,40427,3846.03,-193.33,58.5,0
28.6309536,40395,3939.05,-174.95,58.5,0
28.6309676,40397,4032.46,-158.56,58.5,0
28.6309812,40381,4122.97,-142.72,58.5,0
28.6309943,40379,4205.67,-124.45,58.5,0
28.6310096,40356,4274.32,-99.56,58.5,0
28.6310232,40346,4321.66,-64.36,58.5,0
28.6310368,40359,4339.69,-16.49,58.5,0
28.6310505,40348,4320.53,45.53,58.5,0
28.6310643,40346,4257.4,122.38,58.5,0
28.6310782,40353,4145.34,213.23,58.5,0
28.6310923,40350,3981.49,315.58,58.5,0
28.6311056,40341,3765.31,425.82,58.5,0
28.6311193,40330,3498.23,539.89,58.5,0
28.631137,40340,3183.06,653.61,58.5,0
28.6311521,40333,2823.58,762.89,58.5,0
28.6311662,40323,2424.48,864.05,58.5,0
28.6311806,40328,1991.1,953.96,58.5,0
28.6311951,40325,1529.12,1030.53,58.4,0
28.6312095,40310,1044.42,1093.02,58.4,0
28.6312235,40322,542.84,1141.47,58.4,0
28.6312377,40305,29.95,1176.29,58.3,0
28.6312517,40298,-489.1,1198.58,58.3,0
28.6312669,40281,-1009.94,1209.94,58.2,0
28.6312806,40304,-1529.29,1211.71,58.2,0
28.6312947,40304,-2044.62,1204.99,58.1,0
28.6313088,40289,-2553.3,1191.18,58.1,0
28.6313227,40302,-3052.27,1172.01,58.0,0
28.6313377,40286,-3538.26,1148.75,58.0,0
28.6313514,40302,-4008.04,1121.37,57.9,0
28.631366,40305,-4458.32,1088.4,57.8,0
28.6313798,40287,-4885.61,1047.79,57.8,0
28.6313941,40312,-5286.37,998.17,57.7,0
28.6314076,40303,-5657.14,939.33,57.7,0
28.6314221,40291,-5994.62,871.88,57.6,0
28.6314362,40290,-6296.04,796.93,57.5,0
28.6314498,40279,-6559.78,716.41,57.5,0
28.6314635,40284,-6785.75,632.67,57.4,0
28.6314777,40282,-6975.17,547.41,57.4,0
28.6314917,40277,-7130.21,461.53,57.4,0
28.6315062,40292,-7253.53,375.89,57.3,0
28.6315203,40267,-7347.92,291.66,57.3,0
28.6315339,40291,-7416.14,209.82,57.3,0
28.6315475,40277,-7460.83,131.03,57.3,0
28.631562,40279,-7484.34,55.76,57.3,0
28.6458845,40289,-7488.73,-15.59,57.3,0
28.6460408,40279,-7475.64,-82.36,57.3,0
28.6654538,40279,-7446.36,-143.63,57.3,0
28.6656339,40277,-7402.02,-198.75,57.3,0
28.6856665,40272,-7343.83,-247.88,57.3,0
28.6860255,40282,-7273.2,-291.99,57.3,0
28.7057922,40278,-7191.59,-332.4,57.3,0
28.7064145,40282,-7100.23,-369.77,57.3,0
28.7254481,40280,-7000.02,-403.8,57.3,0
28.7255554,40291,-6891.54,-434.14,57.3,0
28.7455394,40293,-6774.91,-461.03,57.3,0
28.7457957,40309,-6649.57,-484.86,57.3,0
28.7653075,40294,-6514.19,-505.52,57.3,0
28.7653947,40297,-6366.9,-522.61,57.3,0
28.7855263,40282,-6206.07,-536.05,57.3,0
28.7856315,40300,-6030.92,-546.26,57.3,0
28.8061286,40296,-5841.64,-553.83,57.3,0
28.8062569,40303,-5638.92,-558.98,57.3,0
28.8251181,40303,-5423.6,-561.25,57.3,0
28.8252999,40291,-5196.62,-559.88,57.3,0
28.8455976,40302,-4959.17,-554.62,57.3,0
28.8457829,40289,-4712.95,-546.03,57.3,0
28.8667476,40286,-4460.23,-535.03,57.3,0
28.866848,40297,-4203.85,-522.47,57.3,0
28.885323,40302,-3946.92,-508.73,57.3,0
28.8854923,40310,-3692.21,-493.55,57.3,0
28.9054943,40314,-3441.53,-476.48,57.3,0
28.9057163,40314,-3195.56,-457.4,57.3,0
28.9253917,40303,-2954.07,-436.68,57.3,0
28.9258586,40310,-2716.58,-415.01,57.3,0
28.9457562,40293,-2482.87,-393.4,57.3,0
28.945787,40326,-2253.25,-373.03,57.3,0
28.965958,40312,-2028.23,-354.17,57.3,0
28.9659878,40312,-1808.01,-336.09,57.3,0
28.9857119,40314,-1592.57,-318.54,57.3,0
28.9857305,40319,-1381.91,-302.65,57.3,0
29.0070843,40321,-1176.06,-290.42,57.3,0
29.0071069,40316,-974.93,-283.64,57.3,0
29.0254383,40321,-778.39,-283.28,57.3,0
29.0254573,40333,-586.34,-289.2,57.3,0
29.0458778,40333,-398.49,-300.21,57.3,0
29.0459798,40315,-214.2,-314.38,57.3,0
29.5877922,40317,-32.94,-330.01,57.3,0
29.5878185,40314,145.06,-346.1,57.3,0
29.5878367,40349,318.83,-362.02,57.3,0
29.5878541,40341,487.54,-377.05,57.3,0
29.587872,40347,651.35,-390.68,57.3,0
29.5878895,40354,811.56,-402.65,57.3,0
29.5879056,40346,970.12,-412.58,57.3,0
29.587923,40349,1129.17,-420.15,57.3,0
29.5879408,40365,1290.59,-425.18,57.3,0
29.5879578,40355,1456.0,-427.0,57.3,0
29.5879746,40353,1626.7,-424.94,57.3,0
29.587991,40360,1803.47,-419.46,57.3,0
29.5880078,40383,1986.48,-411.8,57.3,1
29.5880248,40360,2175.73,-402.85,57.3,0
29.5880417,40368,2371.22,-392.94,57.3,0
29.5880583,40366,2572.6,-382.33,57.3,0
29.5880855,40349,2778.7,-371.52,57.3,0
29.5881022,40334,2987.25,-361.07,57.3,0
29.5882774,40336,3194.35,-351.13,57.3,0
29.5885611,40319,3394.44,-340.77,57.3,0
29.5886055,40316,3580.62,-327.36,57.3,0
29.5886344,40304,3745.17,-306.82,57.3,0
29.5886608,40276,3879.88,-274.7,57.3,0
29.5886869,40282,3976.15,-227.65,57.3,0
29.5887126,40289,4025.39,-164.18,57.3,0
29.5887386,40291,4020.06,-84.07,57.3,0
29.5887645,40282,3954.93,11.77,57.3,0
29.5887911,40277,3827.4,120.59,57.3,0
29.5888168,40280,3637.27,238.07,57.3,0
29.5888422,40267,3386.29,359.34,57.3,0
29.5888674,40274,3077.87,479.7,57.3,0
29.5888931,40279,2716.79,594.94,57.3,0
29.5889239,40270,2309.22,701.72,57.3,0
29.5889497,40284,1862.53,797.75,57.3,0
29.5889757,40257,1385.03,881.68,57.3,0
29.5890012,40251,885.19,952.9,57.3,0
29.5890264,40273,370.84,1011.28,57.3,0
29.5890525,40246,-151.01,1057.16,57.3,0
29.5890779,40241,-674.12,1091.12,57.3,0
29.5891037,40236,-1193.32,1113.43,57.3,0
29.5891308,40247,-1704.78,1124.46,57.2,0
29.5891587,40237,-2205.64,1125.6,57.2,0
29.589185,40225,-2693.48,1118.85,57.2,0
29.5892108,40258,-3166.26,1105.28,57.2,0
29.5892373,40248,-3621.88,1084.78,57.2,0
29.5892632,40248,-4057.55,1056.95,57.2,0
29.5892882,40267,-4469.72,1021.39,57.2,0
29.5893153,40248,-4854.29,977.44,57.2,0
29.5893409,40245,-5207.03,924.64,57.2,0
29.5893666,40260,-5524.23,863.1,57.2,0
29.5893918,40232,-5803.16,793.23,57.2,0
29.5894172,40235,-6042.27,715.25,57.2,0
29.5894423,40238,-6241.6,629.67,57.2,0
29.6069608,40232,-6402.64,538.02,57.2,0
29.6069942,40247,-6527.81,442.96,57.2,0
29.6256619,40254,-6619.77,347.74,57.2,0
29.625832,40240,-6680.8,255.81,57.2,0
29.647317,40237,-6712.7,170.09,57.2,0
29.6475532,40242,-6717.33,92.24,57.2,0
29.6664565,40247,-6696.81,22.87,57.2,0
29.66649,40240,-6653.32,-37.95,57.2,0
29.6855435,40240,-6588.92,-90.39,57.2,0
29.6857175,40242,-6505.71,-134.83,57.2,0
29.7054435,40248,-6405.79,-172.07,57.2,0
29.7056662,40252,-6291.07,-203.49,57.2,0
29.7266894,40243,-6163.04,-230.91,57.2,0
29.7267219,40245,-6022.84,-256.35,57.2,0
29.7459585,40237,-5871.7,-281.65,57.2,0
29.7459809,40242,-5711.13,-307.91,57.2,0
29.7655092,40242,-5543.02,-335.25,57.2,0
29.7655984,40260,-5369.27,-363.1,57.2,0
29.7853547,40252,-5191.31,-390.54,57.2,0
29.7854498,40267,-5009.74,-416.39,57.2,0
29.805648,40261,-4824.32,-439.62,57.2,0
29.8057737,40252,-4634.23,-459.87,57.2,0
29.8642418,40257,-4438.65,-477.69,57.2,0
29.8642602,40269,-4237.2,-493.99,57.2,0
29.8642752,40258,-4029.8,-509.15,57.2,0
29.8642886,40275,-3816.45,-522.77,57.2,0
29.8654366,40256,-3597.22,-534.26,57.2,0
29.8655891,40265,-3372.37,-543.39,57.2,0
29.8863917,40271,-3142.6,-550.34,57.2,0
29.8864141,40260,-2908.91,-555.3,57.2,0
29.906889,40276,-2672.49,-558.23,57.2,0
29.9069943,40261,-2434.63,-558.83,57.2,0
29.9253753,40245,-2196.81,-556.69,57.2,0
29.9254784,40263,-1961.15,-552.06,57.2,0
29.945704,40262,-1730.43,-545.91,57.2,0
29.9459073,40280,-1507.39,-539.02,57.2,0
29.9654413,40278,-1293.9,-531.46,57.2,0
29.9656122,40285,-1090.5,-522.57,57.2,0
29.9856833,40276,-896.56,-511.73,57.2,0
29.9858862,40281,-710.77,-499.27,57.2,0
30.005461,40287,-531.64,-486.3,57.2,0
30.0056315,40287,-357.67,-473.62,57.2,0
30.0258393,40283,-187.38,-461.12,57.2,0
30.025997,40298,-19.41,-448.42,57.2,0
